30.00000 198.000
30.05000 137.000
30.10000 144.000
30.15000 141.000
30.20000 138.000
30.25000 154.000
30.30000 162.000
30.35000 145.000
30.40000 137.000
30.45000 142.000
30.50000 158.000
30.55000 140.000
30.60000 152.000
30.65000 133.000
30.70000 130.000
30.75000 140.000
30.80000 158.000
30.85000 132.000
30.90000 141.000
30.95000 135.000
31.00000 151.000
31.05000 145.000
31.10000 142.000
31.15000 132.000
31.20000 145.000
31.25000 128.000
31.30000 130.000
31.35000 136.000
31.40000 154.000
31.45000 148.000
31.50000 137.000
31.55000 137.000
31.60000 140.000
31.65000 149.000
31.70000 133.000
31.75000 132.000
31.80000 118.000
31.85000 113.000
31.90000 141.000
31.95000 128.000
32.00000 139.000
32.05000 125.000
32.10000 137.000
32.15000 131.000
32.20000 134.000
32.25000 140.000
32.30000 117.000
32.35000 126.000
32.40000 144.000
32.45000 144.000
32.50000 133.000
32.55000 136.000
32.60000 135.000
32.65000 174.000
32.70000 183.000
32.75000 208.000
32.80000 175.000
32.85000 148.000
32.90000 157.000
32.95000 125.000
33.00000 114.000
33.05000 127.000
33.10000 106.000
33.15000 116.000
33.20000 124.000
33.25000 129.000
33.30000 110.000
33.35000 134.000
33.40000 118.000
33.45000 112.000
33.50000 130.000
33.55000 133.000
33.60000 104.000
33.65000 84.000
33.70000 107.000
33.75000 125.000
33.80000 110.000
33.85000 114.000
33.90000 120.000
33.95000 108.000
34.00000 113.000
34.05000 109.000
34.10000 117.000
34.15000 106.000
34.20000 103.000
34.25000 107.000
34.30000 104.000
34.35000 81.000
34.40000 133.000
34.45000 112.000
34.50000 132.000
34.55000 118.000
34.60000 115.000
34.65000 122.000
34.70000 118.000
34.75000 108.000
34.80000 128.000
34.85000 123.000
34.90000 125.000
34.95000 94.000
35.00000 103.000
35.05000 104.000
35.10000 111.000
35.15000 93.000
35.20000 127.000
35.25000 118.000
35.30000 96.000
35.35000 98.000
35.40000 102.000
35.45000 80.000
35.50000 94.000
35.55000 98.000
35.60000 113.000
35.65000 113.000
35.70000 96.000
35.75000 106.000
35.80000 95.000
35.85000 97.000
35.90000 83.000
35.95000 109.000
36.00000 86.000
36.05000 121.000
36.10000 101.000
36.15000 105.000
36.20000 85.000
36.25000 81.000
36.30000 95.000
36.35000 101.000
36.40000 104.000
36.45000 92.000
36.50000 75.000
36.55000 120.000
36.60000 80.000
36.65000 78.000
36.70000 85.000
36.75000 100.000
36.80000 107.000
36.85000 95.000
36.90000 90.000
36.95000 88.000
37.00000 92.000
37.05000 91.000
37.10000 93.000
37.15000 93.000
37.20000 104.000
37.25000 83.000
37.30000 85.000
37.35000 80.000
37.40000 112.000
37.45000 96.000
37.50000 91.000
37.55000 85.000
37.60000 88.000
37.65000 88.000
37.70000 81.000
37.75000 78.000
37.80000 92.000
37.85000 76.000
37.90000 82.000
37.95000 100.000
38.00000 104.000
38.05000 104.000
38.10000 95.000
38.15000 96.000
38.20000 79.000
38.25000 79.000
38.30000 74.000
38.35000 74.000
38.40000 86.000
38.45000 80.000
38.50000 94.000
38.55000 102.000
38.60000 75.000
38.65000 95.000
38.70000 88.000
38.75000 84.000
38.80000 95.000
38.85000 80.000
38.90000 127.000
38.95000 114.000
39.00000 107.000
39.05000 151.000
39.10000 151.000
39.15000 200.000
39.20000 234.000
39.25000 278.000
39.30000 281.000
39.35000 260.000
39.40000 223.000
39.45000 164.000
39.50000 140.000
39.55000 111.000
39.60000 103.000
39.65000 80.000
39.70000 86.000
39.75000 98.000
39.80000 88.000
39.85000 86.000
39.90000 87.000
39.95000 61.000
40.00000 90.000
40.05000 73.000
40.10000 86.000
40.15000 101.000
40.20000 68.000
40.25000 74.000
40.30000 76.000
40.35000 73.000
40.40000 74.000
40.45000 87.000
40.50000 86.000
40.55000 88.000
40.60000 64.000
40.65000 58.000
40.70000 71.000
40.75000 65.000
40.80000 68.000
40.85000 74.000
40.90000 66.000
40.95000 70.000
41.00000 86.000
41.05000 68.000
41.10000 70.000
41.15000 99.000
41.20000 76.000
41.25000 59.000
41.30000 80.000
41.35000 90.000
41.40000 83.000
41.45000 84.000
41.50000 72.000
41.55000 77.000
41.60000 68.000
41.65000 66.000
41.70000 91.000
41.75000 72.000
41.80000 58.000
41.85000 78.000
41.90000 83.000
41.95000 93.000
42.00000 80.000
42.05000 59.000
42.10000 75.000
42.15000 85.000
42.20000 75.000
42.25000 75.000
42.30000 86.000
42.35000 74.000
42.40000 57.000
42.45000 71.000
42.50000 79.000
42.55000 67.000
42.60000 63.000
42.65000 68.000
42.70000 69.000
42.75000 66.000
42.80000 72.000
42.85000 90.000
42.90000 66.000
42.95000 68.000
43.00000 77.000
43.05000 65.000
43.10000 79.000
43.15000 73.000
43.20000 73.000
43.25000 71.000
43.30000 81.000
43.35000 78.000
43.40000 68.000
43.45000 71.000
43.50000 76.000
43.55000 80.000
43.60000 84.000
43.65000 73.000
43.70000 78.000
43.75000 73.000
43.80000 83.000
43.85000 72.000
43.90000 55.000
43.95000 70.000
44.00000 63.000
44.05000 92.000
44.10000 80.000
44.15000 71.000
44.20000 71.000
44.25000 64.000
44.30000 72.000
44.35000 73.000
44.40000 82.000
44.45000 69.000
44.50000 84.000
44.55000 75.000
44.60000 68.000
44.65000 77.000
44.70000 74.000
44.75000 76.000
44.80000 76.000
44.85000 78.000
44.90000 83.000
44.95000 64.000
45.00000 78.000
45.05000 72.000
45.10000 78.000
45.15000 69.000
45.20000 84.000
45.25000 87.000
45.30000 84.000
45.35000 101.000
45.40000 95.000
45.45000 111.000
45.50000 106.000
45.55000 102.000
45.60000 87.000
45.65000 94.000
45.70000 91.000
45.75000 84.000
45.80000 85.000
45.85000 83.000
45.90000 65.000
45.95000 73.000
46.00000 57.000
46.05000 95.000
46.10000 63.000
46.15000 81.000
46.20000 73.000
46.25000 75.000
46.30000 70.000
46.35000 64.000
46.40000 88.000
46.45000 62.000
46.50000 75.000
46.55000 78.000
46.60000 73.000
46.65000 66.000
46.70000 60.000
46.75000 76.000
46.80000 88.000
46.85000 72.000
46.90000 72.000
46.95000 69.000
47.00000 65.000
47.05000 58.000
47.10000 78.000
47.15000 59.000
47.20000 67.000
47.25000 72.000
47.30000 73.000
47.35000 77.000
47.40000 69.000
47.45000 74.000
47.50000 72.000
47.55000 81.000
47.60000 68.000
47.65000 62.000
47.70000 71.000
47.75000 78.000
47.80000 86.000
47.85000 75.000
47.90000 76.000
47.95000 79.000
48.00000 64.000
48.05000 74.000
48.10000 67.000
48.15000 66.000
48.20000 70.000
48.25000 61.000
48.30000 72.000
48.35000 60.000
48.40000 63.000
48.45000 75.000
48.50000 61.000
48.55000 76.000
48.60000 62.000
48.65000 74.000
48.70000 64.000
48.75000 62.000
48.80000 60.000
48.85000 65.000
48.90000 71.000
48.95000 69.000
49.00000 55.000
49.05000 68.000
49.10000 54.000
49.15000 71.000
49.20000 56.000
49.25000 61.000
49.30000 77.000
49.35000 60.000
49.40000 74.000
49.45000 62.000
49.50000 69.000
49.55000 70.000
49.60000 66.000
49.65000 78.000
49.70000 87.000
49.75000 71.000
49.80000 68.000
49.85000 84.000
49.90000 49.000
49.95000 69.000
50.00000 65.000
50.05000 89.000
50.10000 59.000
50.15000 78.000
50.20000 63.000
50.25000 69.000
50.30000 85.000
50.35000 62.000
50.40000 56.000
50.45000 68.000
50.50000 51.000
50.55000 67.000
50.60000 78.000
50.65000 77.000
50.70000 79.000
50.75000 63.000
50.80000 75.000
50.85000 68.000
50.90000 59.000
50.95000 69.000
51.00000 77.000
51.05000 71.000
51.10000 65.000
51.15000 52.000
51.20000 75.000
51.25000 69.000
51.30000 62.000
51.35000 65.000
51.40000 50.000
51.45000 66.000
51.50000 65.000
51.55000 67.000
51.60000 80.000
51.65000 61.000
51.70000 60.000
51.75000 81.000
51.80000 65.000
51.85000 79.000
51.90000 68.000
51.95000 66.000
52.00000 64.000
52.05000 77.000
52.10000 73.000
52.15000 76.000
52.20000 72.000
52.25000 72.000
52.30000 68.000
52.35000 70.000
52.40000 73.000
52.45000 87.000
52.50000 67.000
52.55000 64.000
52.60000 70.000
52.65000 61.000
52.70000 67.000
52.75000 72.000
52.80000 56.000
52.85000 57.000
52.90000 78.000
52.95000 66.000
53.00000 71.000
53.05000 76.000
53.10000 76.000
53.15000 75.000
53.20000 53.000
53.25000 65.000
53.30000 63.000
53.35000 73.000
53.40000 74.000
53.45000 66.000
53.50000 54.000
53.55000 80.000
53.60000 70.000
53.65000 77.000
53.70000 61.000
53.75000 69.000
53.80000 71.000
53.85000 68.000
53.90000 78.000
53.95000 69.000
54.00000 64.000
54.05000 79.000
54.10000 79.000
54.15000 54.000
54.20000 57.000
54.25000 73.000
54.30000 70.000
54.35000 74.000
54.40000 63.000
54.45000 59.000
54.50000 81.000
54.55000 67.000
54.60000 71.000
54.65000 85.000
54.70000 81.000
54.75000 74.000
54.80000 73.000
54.85000 82.000
54.90000 76.000
54.95000 72.000
55.00000 79.000
55.05000 71.000
55.10000 75.000
55.15000 71.000
55.20000 55.000
55.25000 78.000
55.30000 94.000
55.35000 64.000
55.40000 71.000
55.45000 69.000
55.50000 71.000
55.55000 67.000
55.60000 66.000
55.65000 61.000
55.70000 65.000
55.75000 73.000
55.80000 77.000
55.85000 89.000
55.90000 77.000
55.95000 57.000
56.00000 66.000
56.05000 79.000
56.10000 85.000
56.15000 71.000
56.20000 85.000
56.25000 78.000
56.30000 67.000
56.35000 79.000
56.40000 70.000
56.45000 68.000
56.50000 63.000
56.55000 71.000
56.60000 64.000
56.65000 72.000
56.70000 71.000
56.75000 78.000
56.80000 83.000
56.85000 75.000
56.90000 66.000
56.95000 72.000
57.00000 75.000
57.05000 69.000
57.10000 68.000
57.15000 65.000
57.20000 71.000
57.25000 63.000
57.30000 68.000
57.35000 69.000
57.40000 77.000
57.45000 84.000
57.50000 74.000
57.55000 75.000
57.60000 86.000
57.65000 79.000
57.70000 68.000
57.75000 69.000
57.80000 80.000
57.85000 85.000
57.90000 62.000
57.95000 65.000
58.00000 78.000
58.05000 58.000
58.10000 51.000
58.15000 67.000
58.20000 83.000
58.25000 71.000
58.30000 77.000
58.35000 69.000
58.40000 88.000
58.45000 72.000
58.50000 89.000
58.55000 95.000
58.60000 74.000
58.65000 77.000
58.70000 79.000
58.75000 71.000
58.80000 86.000
58.85000 70.000
58.90000 65.000
58.95000 70.000
59.00000 81.000
59.05000 85.000
59.10000 101.000
59.15000 98.000
59.20000 73.000
59.25000 87.000
59.30000 82.000
59.35000 71.000
59.40000 86.000
59.45000 81.000
59.50000 80.000
59.55000 79.000
59.60000 76.000
59.65000 78.000
59.70000 75.000
59.75000 85.000
59.80000 75.000
59.85000 63.000
59.90000 85.000
59.95000 84.000
60.00000 63.000
60.05000 83.000
60.10000 78.000
60.15000 82.000
60.20000 67.000
60.25000 66.000
60.30000 69.000
60.35000 84.000
60.40000 72.000
60.45000 69.000
60.50000 93.000
60.55000 63.000
60.60000 74.000
60.65000 74.000
60.70000 71.000
60.75000 78.000
60.80000 87.000
60.85000 84.000
60.90000 79.000
60.95000 76.000
61.00000 80.000
61.05000 69.000
61.10000 62.000
61.15000 95.000
61.20000 68.000
61.25000 71.000
61.30000 87.000
61.35000 73.000
61.40000 60.000
61.45000 78.000
61.50000 85.000
61.55000 81.000
61.60000 74.000
61.65000 80.000
61.70000 77.000
61.75000 88.000
61.80000 76.000
61.85000 73.000
61.90000 64.000
61.95000 83.000
62.00000 82.000
62.05000 83.000
62.10000 59.000
62.15000 73.000
62.20000 95.000
62.25000 81.000
62.30000 64.000
62.35000 74.000
62.40000 72.000
62.45000 76.000
62.50000 83.000
62.55000 68.000
62.60000 77.000
62.65000 96.000
62.70000 72.000
62.75000 86.000
62.80000 82.000
62.85000 88.000
62.90000 83.000
62.95000 71.000
63.00000 95.000
63.05000 74.000
63.10000 96.000
63.15000 71.000
63.20000 75.000
63.25000 74.000
63.30000 88.000
63.35000 74.000
63.40000 64.000
63.45000 90.000
63.50000 75.000
63.55000 75.000
63.60000 78.000
63.65000 81.000
63.70000 62.000
63.75000 77.000
63.80000 73.000
63.85000 74.000
63.90000 84.000
63.95000 76.000
64.00000 89.000
64.05000 89.000
64.10000 100.000
64.15000 95.000
64.20000 64.000
64.25000 81.000
64.30000 76.000
64.35000 82.000
64.40000 71.000
64.45000 88.000
64.50000 89.000
64.55000 73.000
64.60000 76.000
64.65000 68.000
64.70000 82.000
64.75000 82.000
64.80000 69.000
64.85000 90.000
64.90000 62.000
64.95000 82.000
65.00000 87.000
65.05000 94.000
65.10000 92.000
65.15000 79.000
65.20000 81.000
65.25000 99.000
65.30000 96.000
65.35000 85.000
65.40000 87.000
65.45000 88.000
65.50000 77.000
65.55000 101.000
65.60000 95.000
65.65000 95.000
65.70000 95.000
65.75000 86.000
65.80000 93.000
65.85000 81.000
65.90000 75.000
65.95000 97.000
66.00000 93.000
66.05000 104.000
66.10000 82.000
66.15000 72.000
66.20000 66.000
66.25000 101.000
66.30000 90.000
66.35000 87.000
66.40000 81.000
66.45000 92.000
66.50000 77.000
66.55000 82.000
66.60000 65.000
66.65000 78.000
66.70000 93.000
66.75000 94.000
66.80000 88.000
66.85000 81.000
66.90000 96.000
66.95000 99.000
67.00000 85.000
67.05000 79.000
67.10000 84.000
67.15000 80.000
67.20000 87.000
67.25000 76.000
67.30000 78.000
67.35000 77.000
67.40000 79.000
67.45000 65.000
67.50000 80.000
67.55000 79.000
67.60000 63.000
67.65000 79.000
67.70000 70.000
67.75000 68.000
67.80000 87.000
67.85000 88.000
67.90000 82.000
67.95000 69.000
68.00000 82.000
68.05000 69.000
68.10000 111.000
68.15000 79.000
68.20000 84.000
68.25000 78.000
68.30000 100.000
68.35000 78.000
68.40000 69.000
68.45000 83.000
68.50000 86.000
68.55000 78.000
68.60000 61.000
68.65000 71.000
68.70000 79.000
68.75000 74.000
68.80000 76.000
68.85000 63.000
68.90000 72.000
68.95000 77.000
69.00000 83.000
69.05000 85.000
69.10000 83.000
69.15000 86.000
69.20000 74.000
69.25000 70.000
69.30000 82.000
69.35000 56.000
69.40000 76.000
69.45000 73.000
69.50000 87.000
69.55000 73.000
69.60000 85.000
69.65000 75.000
69.70000 77.000
69.75000 74.000
69.80000 62.000
69.85000 73.000
69.90000 84.000
69.95000 62.000
70.00000 70.000
70.05000 83.000
70.10000 71.000
70.15000 98.000
70.20000 80.000
70.25000 57.000
70.30000 76.000
70.35000 86.000
70.40000 70.000
70.45000 89.000
70.50000 77.000
70.55000 73.000
70.60000 74.000
70.65000 72.000
70.70000 75.000
70.75000 80.000
70.80000 83.000
70.85000 72.000
70.90000 84.000
70.95000 85.000
71.00000 98.000
71.05000 82.000
71.10000 82.000
71.15000 80.000
71.20000 87.000
71.25000 68.000
71.30000 88.000
71.35000 97.000
71.40000 74.000
71.45000 76.000
71.50000 70.000
71.55000 71.000
71.60000 79.000
71.65000 75.000
71.70000 79.000
71.75000 81.000
71.80000 71.000
71.85000 80.000
71.90000 68.000
71.95000 95.000
72.00000 87.000
72.05000 80.000
72.10000 93.000
72.15000 61.000
72.20000 66.000
72.25000 82.000
72.30000 74.000
72.35000 83.000
72.40000 69.000
72.45000 70.000
72.50000 78.000
72.55000 59.000
72.60000 87.000
72.65000 75.000
72.70000 65.000
72.75000 70.000
72.80000 70.000
72.85000 75.000
72.90000 68.000
72.95000 73.000
73.00000 92.000
73.05000 83.000
73.10000 79.000
73.15000 84.000
73.20000 59.000
73.25000 61.000
73.30000 74.000
73.35000 80.000
73.40000 67.000
73.45000 70.000
73.50000 77.000
73.55000 68.000
73.60000 76.000
73.65000 82.000
73.70000 77.000
73.75000 99.000
73.80000 81.000
73.85000 53.000
73.90000 62.000
73.95000 77.000
74.00000 74.000
74.05000 69.000
74.10000 71.000
74.15000 75.000
74.20000 92.000
74.25000 71.000
74.30000 74.000
74.35000 81.000
74.40000 85.000
74.45000 79.000
74.50000 58.000
74.55000 68.000
74.60000 84.000
74.65000 87.000
74.70000 62.000
74.75000 90.000
74.80000 77.000
74.85000 86.000
74.90000 74.000
74.95000 78.000
75.00000 71.000
75.05000 86.000
75.10000 82.000
75.15000 66.000
75.20000 85.000
75.25000 78.000
75.30000 97.000
75.35000 68.000
75.40000 77.000
75.45000 59.000
75.50000 80.000
75.55000 68.000
75.60000 75.000
75.65000 72.000
75.70000 80.000
75.75000 87.000
75.80000 75.000
75.85000 67.000
75.90000 84.000
75.95000 68.000
76.00000 85.000
76.05000 67.000
76.10000 72.000
76.15000 66.000
76.20000 94.000
76.25000 85.000
76.30000 93.000
76.35000 82.000
76.40000 84.000
76.45000 75.000
76.50000 58.000
76.55000 88.000
76.60000 73.000
76.65000 54.000
76.70000 79.000
76.75000 93.000
76.80000 76.000
76.85000 75.000
76.90000 92.000
76.95000 81.000
77.00000 77.000
77.05000 82.000
77.10000 69.000
77.15000 85.000
77.20000 76.000
77.25000 76.000
77.30000 89.000
77.35000 83.000
77.40000 73.000
77.45000 84.000
77.50000 87.000
77.55000 66.000
77.60000 94.000
77.65000 69.000
77.70000 75.000
77.75000 86.000
77.80000 72.000
77.85000 68.000
77.90000 73.000
77.95000 66.000
78.00000 75.000
78.05000 79.000
78.10000 69.000
78.15000 98.000
78.20000 81.000
78.25000 72.000
78.30000 89.000
78.35000 85.000
78.40000 79.000
78.45000 89.000
78.50000 94.000
78.55000 90.000
78.60000 86.000
78.65000 116.000
78.70000 100.000
78.75000 88.000
78.80000 80.000
78.85000 72.000
78.90000 78.000
78.95000 73.000
79.00000 82.000
79.05000 79.000
79.10000 85.000
79.15000 73.000
79.20000 68.000
79.25000 73.000
79.30000 90.000
79.35000 72.000
79.40000 60.000
79.45000 86.000
79.50000 78.000
79.55000 74.000
79.60000 91.000
79.65000 76.000
79.70000 78.000
79.75000 74.000
79.80000 67.000
79.85000 89.000
79.90000 76.000
