30.00000 318.000
30.05000 336.000
30.10000 339.000
30.15000 324.000
30.20000 326.000
30.25000 321.000
30.30000 323.000
30.35000 334.000
30.40000 345.000
30.45000 322.000
30.50000 323.000
30.55000 330.000
30.60000 313.000
30.65000 319.000
30.70000 350.000
30.75000 326.000
30.80000 299.000
30.85000 295.000
30.90000 310.000
30.95000 320.000
31.00000 316.000
31.05000 307.000
31.10000 315.000
31.15000 333.000
31.20000 315.000
31.25000 323.000
31.30000 322.000
31.35000 322.000
31.40000 315.000
31.45000 313.000
31.50000 317.000
31.55000 319.000
31.60000 304.000
31.65000 283.000
31.70000 319.000
31.75000 304.000
31.80000 303.000
31.85000 333.000
31.90000 314.000
31.95000 300.000
32.00000 307.000
32.05000 278.000
32.10000 299.000
32.15000 309.000
32.20000 290.000
32.25000 313.000
32.30000 302.000
32.35000 334.000
32.40000 292.000
32.45000 316.000
32.50000 319.000
32.55000 311.000
32.60000 318.000
32.65000 311.000
32.70000 300.000
32.75000 323.000
32.80000 281.000
32.85000 246.000
32.90000 267.000
32.95000 263.000
33.00000 301.000
33.05000 250.000
33.10000 308.000
33.15000 295.000
33.20000 281.000
33.25000 280.000
33.30000 282.000
33.35000 261.000
33.40000 286.000
33.45000 277.000
33.50000 271.000
33.55000 263.000
33.60000 285.000
33.65000 265.000
33.70000 287.000
33.75000 307.000
33.80000 283.000
33.85000 280.000
33.90000 281.000
33.95000 278.000
34.00000 280.000
34.05000 298.000
34.10000 252.000
34.15000 278.000
34.20000 254.000
34.25000 277.000
34.30000 217.000
34.35000 232.000
34.40000 242.000
34.45000 254.000
34.50000 275.000
34.55000 277.000
34.60000 278.000
34.65000 257.000
34.70000 229.000
34.75000 263.000
34.80000 271.000
34.85000 243.000
34.90000 268.000
34.95000 233.000
35.00000 265.000
35.05000 232.000
35.10000 242.000
35.15000 270.000
35.20000 221.000
35.25000 224.000
35.30000 242.000
35.35000 241.000
35.40000 242.000
35.45000 232.000
35.50000 255.000
35.55000 237.000
35.60000 274.000
35.65000 228.000
35.70000 235.000
35.75000 241.000
35.80000 227.000
35.85000 238.000
35.90000 224.000
35.95000 220.000
36.00000 246.000
36.05000 232.000
36.10000 218.000
36.15000 211.000
36.20000 257.000
36.25000 227.000
36.30000 222.000
36.35000 240.000
36.40000 198.000
36.45000 217.000
36.50000 220.000
36.55000 212.000
36.60000 202.000
36.65000 215.000
36.70000 250.000
36.75000 239.000
36.80000 217.000
36.85000 195.000
36.90000 229.000
36.95000 202.000
37.00000 243.000
37.05000 209.000
37.10000 210.000
37.15000 199.000
37.20000 190.000
37.25000 192.000
37.30000 183.000
37.35000 223.000
37.40000 198.000
37.45000 195.000
37.50000 206.000
37.55000 194.000
37.60000 218.000
37.65000 190.000
37.70000 179.000
37.75000 209.000
37.80000 219.000
37.85000 197.000
37.90000 189.000
37.95000 210.000
38.00000 222.000
38.05000 193.000
38.10000 160.000
38.15000 202.000
38.20000 227.000
38.25000 201.000
38.30000 199.000
38.35000 216.000
38.40000 205.000
38.45000 191.000
38.50000 203.000
38.55000 209.000
38.60000 242.000
38.65000 239.000
38.70000 268.000
38.75000 322.000
38.80000 375.000
38.85000 406.000
38.90000 497.000
38.95000 465.000
39.00000 495.000
39.05000 548.000
39.10000 473.000
39.15000 413.000
39.20000 333.000
39.25000 264.000
39.30000 255.000
39.35000 244.000
39.40000 204.000
39.45000 201.000
39.50000 189.000
39.55000 179.000
39.60000 194.000
39.65000 185.000
39.70000 163.000
39.75000 180.000
39.80000 187.000
39.85000 195.000
39.90000 191.000
39.95000 183.000
40.00000 191.000
40.05000 197.000
40.10000 183.000
40.15000 176.000
40.20000 203.000
40.25000 197.000
40.30000 203.000
40.35000 217.000
40.40000 163.000
40.45000 194.000
40.50000 175.000
40.55000 179.000
40.60000 176.000
40.65000 168.000
40.70000 171.000
40.75000 158.000
40.80000 159.000
40.85000 166.000
40.90000 169.000
40.95000 185.000
41.00000 189.000
41.05000 169.000
41.10000 168.000
41.15000 212.000
41.20000 156.000
41.25000 211.000
41.30000 186.000
41.35000 157.000
41.40000 184.000
41.45000 174.000
41.50000 179.000
41.55000 178.000
41.60000 166.000
41.65000 178.000
41.70000 184.000
41.75000 157.000
41.80000 172.000
41.85000 173.000
41.90000 159.000
41.95000 161.000
42.00000 173.000
42.05000 185.000
42.10000 203.000
42.15000 179.000
42.20000 184.000
42.25000 168.000
42.30000 200.000
42.35000 182.000
42.40000 141.000
42.45000 166.000
42.50000 185.000
42.55000 171.000
42.60000 172.000
42.65000 173.000
42.70000 177.000
42.75000 170.000
42.80000 158.000
42.85000 149.000
42.90000 170.000
42.95000 172.000
43.00000 183.000
43.05000 187.000
43.10000 176.000
43.15000 166.000
43.20000 161.000
43.25000 179.000
43.30000 190.000
43.35000 160.000
43.40000 156.000
43.45000 166.000
43.50000 179.000
43.55000 172.000
43.60000 196.000
43.65000 173.000
43.70000 190.000
43.75000 185.000
43.80000 180.000
43.85000 158.000
43.90000 174.000
43.95000 144.000
44.00000 168.000
44.05000 178.000
44.10000 168.000
44.15000 181.000
44.20000 189.000
44.25000 178.000
44.30000 184.000
44.35000 162.000
44.40000 145.000
44.45000 183.000
44.50000 187.000
44.55000 173.000
44.60000 169.000
44.65000 158.000
44.70000 160.000
44.75000 176.000
44.80000 171.000
44.85000 201.000
44.90000 194.000
44.95000 173.000
45.00000 188.000
45.05000 170.000
45.10000 224.000
45.15000 191.000
45.20000 215.000
45.25000 193.000
45.30000 180.000
45.35000 207.000
45.40000 200.000
45.45000 181.000
45.50000 173.000
45.55000 185.000
45.60000 166.000
45.65000 169.000
45.70000 160.000
45.75000 174.000
45.80000 175.000
45.85000 155.000
45.90000 166.000
45.95000 166.000
46.00000 171.000
46.05000 160.000
46.10000 176.000
46.15000 169.000
46.20000 151.000
46.25000 148.000
46.30000 168.000
46.35000 166.000
46.40000 181.000
46.45000 174.000
46.50000 176.000
46.55000 161.000
46.60000 172.000
46.65000 167.000
46.70000 144.000
46.75000 162.000
46.80000 156.000
46.85000 144.000
46.90000 144.000
46.95000 152.000
47.00000 162.000
47.05000 154.000
47.10000 149.000
47.15000 167.000
47.20000 150.000
47.25000 144.000
47.30000 185.000
47.35000 171.000
47.40000 188.000
47.45000 163.000
47.50000 139.000
47.55000 143.000
47.60000 174.000
47.65000 166.000
47.70000 159.000
47.75000 148.000
47.80000 148.000
47.85000 168.000
47.90000 153.000
47.95000 170.000
48.00000 152.000
48.05000 150.000
48.10000 160.000
48.15000 155.000
48.20000 174.000
48.25000 145.000
48.30000 162.000
48.35000 157.000
48.40000 162.000
48.45000 169.000
48.50000 180.000
48.55000 150.000
48.60000 144.000
48.65000 158.000
48.70000 138.000
48.75000 146.000
48.80000 164.000
48.85000 155.000
48.90000 146.000
48.95000 138.000
49.00000 162.000
49.05000 155.000
49.10000 140.000
49.15000 171.000
49.20000 143.000
49.25000 155.000
49.30000 156.000
49.35000 140.000
49.40000 176.000
49.45000 158.000
49.50000 163.000
49.55000 146.000
49.60000 119.000
49.65000 150.000
49.70000 154.000
49.75000 139.000
49.80000 174.000
49.85000 159.000
49.90000 166.000
49.95000 140.000
50.00000 163.000
50.05000 154.000
50.10000 146.000
50.15000 142.000
50.20000 140.000
50.25000 147.000
50.30000 159.000
50.35000 169.000
50.40000 131.000
50.45000 145.000
50.50000 147.000
50.55000 150.000
50.60000 151.000
50.65000 136.000
50.70000 149.000
50.75000 163.000
50.80000 154.000
50.85000 149.000
50.90000 155.000
50.95000 160.000
51.00000 143.000
51.05000 157.000
51.10000 141.000
51.15000 140.000
51.20000 158.000
51.25000 154.000
51.30000 162.000
51.35000 146.000
51.40000 164.000
51.45000 136.000
51.50000 140.000
51.55000 155.000
51.60000 156.000
51.65000 160.000
51.70000 155.000
51.75000 155.000
51.80000 147.000
51.85000 155.000
51.90000 137.000
51.95000 145.000
52.00000 162.000
52.05000 135.000
52.10000 147.000
52.15000 135.000
52.20000 145.000
52.25000 149.000
52.30000 155.000
52.35000 124.000
52.40000 155.000
52.45000 149.000
52.50000 139.000
52.55000 120.000
52.60000 148.000
52.65000 153.000
52.70000 149.000
52.75000 157.000
52.80000 195.000
52.85000 141.000
52.90000 148.000
52.95000 134.000
53.00000 148.000
53.05000 152.000
53.10000 172.000
53.15000 124.000
53.20000 164.000
53.25000 156.000
53.30000 146.000
53.35000 132.000
53.40000 156.000
53.45000 179.000
53.50000 158.000
53.55000 158.000
53.60000 149.000
53.65000 152.000
53.70000 142.000
53.75000 159.000
53.80000 160.000
53.85000 145.000
53.90000 135.000
53.95000 158.000
54.00000 130.000
54.05000 164.000
54.10000 165.000
54.15000 150.000
54.20000 152.000
54.25000 154.000
54.30000 118.000
54.35000 123.000
54.40000 152.000
54.45000 152.000
54.50000 137.000
54.55000 160.000
54.60000 151.000
54.65000 147.000
54.70000 129.000
54.75000 153.000
54.80000 140.000
54.85000 133.000
54.90000 172.000
54.95000 147.000
55.00000 164.000
55.05000 147.000
55.10000 154.000
55.15000 157.000
55.20000 173.000
55.25000 162.000
55.30000 142.000
55.35000 140.000
55.40000 141.000
55.45000 175.000
55.50000 143.000
55.55000 174.000
55.60000 151.000
55.65000 160.000
55.70000 162.000
55.75000 149.000
55.80000 177.000
55.85000 157.000
55.90000 138.000
55.95000 170.000
56.00000 154.000
56.05000 156.000
56.10000 115.000
56.15000 158.000
56.20000 136.000
56.25000 150.000
56.30000 169.000
56.35000 163.000
56.40000 140.000
56.45000 155.000
56.50000 165.000
56.55000 170.000
56.60000 156.000
56.65000 141.000
56.70000 146.000
56.75000 169.000
56.80000 142.000
56.85000 128.000
56.90000 153.000
56.95000 138.000
57.00000 156.000
57.05000 171.000
57.10000 147.000
57.15000 144.000
57.20000 142.000
57.25000 154.000
57.30000 137.000
57.35000 150.000
57.40000 166.000
57.45000 154.000
57.50000 177.000
57.55000 148.000
57.60000 149.000
57.65000 144.000
57.70000 156.000
57.75000 166.000
57.80000 147.000
57.85000 148.000
57.90000 161.000
57.95000 178.000
58.00000 166.000
58.05000 156.000
58.10000 157.000
58.15000 172.000
58.20000 146.000
58.25000 134.000
58.30000 132.000
58.35000 129.000
58.40000 154.000
58.45000 164.000
58.50000 140.000
58.55000 143.000
58.60000 156.000
58.65000 148.000
58.70000 173.000
58.75000 165.000
58.80000 155.000
58.85000 161.000
58.90000 160.000
58.95000 149.000
59.00000 177.000
59.05000 130.000
59.10000 162.000
59.15000 151.000
59.20000 173.000
59.25000 156.000
59.30000 158.000
59.35000 154.000
59.40000 167.000
59.45000 145.000
59.50000 132.000
59.55000 150.000
59.60000 136.000
59.65000 187.000
59.70000 164.000
59.75000 149.000
59.80000 149.000
59.85000 149.000
59.90000 144.000
59.95000 154.000
60.00000 150.000
60.05000 164.000
60.10000 163.000
60.15000 152.000
60.20000 154.000
60.25000 150.000
60.30000 161.000
60.35000 160.000
60.40000 155.000
60.45000 141.000
60.50000 133.000
60.55000 164.000
60.60000 138.000
60.65000 134.000
60.70000 155.000
60.75000 139.000
60.80000 152.000
60.85000 159.000
60.90000 144.000
60.95000 148.000
61.00000 158.000
61.05000 167.000
61.10000 168.000
61.15000 160.000
61.20000 147.000
61.25000 159.000
61.30000 149.000
61.35000 155.000
61.40000 162.000
61.45000 146.000
61.50000 143.000
61.55000 191.000
61.60000 145.000
61.65000 180.000
61.70000 171.000
61.75000 162.000
61.80000 156.000
61.85000 140.000
61.90000 167.000
61.95000 153.000
62.00000 126.000
62.05000 155.000
62.10000 153.000
62.15000 177.000
62.20000 136.000
62.25000 160.000
62.30000 150.000
62.35000 155.000
62.40000 155.000
62.45000 141.000
62.50000 159.000
62.55000 164.000
62.60000 135.000
62.65000 170.000
62.70000 139.000
62.75000 156.000
62.80000 152.000
62.85000 164.000
62.90000 153.000
62.95000 142.000
63.00000 175.000
63.05000 137.000
63.10000 168.000
63.15000 171.000
63.20000 141.000
63.25000 164.000
63.30000 119.000
63.35000 165.000
63.40000 151.000
63.45000 143.000
63.50000 156.000
63.55000 164.000
63.60000 131.000
63.65000 163.000
63.70000 166.000
63.75000 142.000
63.80000 163.000
63.85000 159.000
63.90000 153.000
63.95000 122.000
64.00000 147.000
64.05000 157.000
64.10000 171.000
64.15000 180.000
64.20000 163.000
64.25000 129.000
64.30000 139.000
64.35000 135.000
64.40000 159.000
64.45000 171.000
64.50000 148.000
64.55000 154.000
64.60000 152.000
64.65000 138.000
64.70000 151.000
64.75000 170.000
64.80000 129.000
64.85000 149.000
64.90000 177.000
64.95000 157.000
65.00000 142.000
65.05000 161.000
65.10000 162.000
65.15000 150.000
65.20000 184.000
65.25000 186.000
65.30000 177.000
65.35000 188.000
65.40000 179.000
65.45000 182.000
65.50000 162.000
65.55000 154.000
65.60000 173.000
65.65000 170.000
65.70000 201.000
65.75000 180.000
65.80000 178.000
65.85000 154.000
65.90000 150.000
65.95000 135.000
66.00000 127.000
66.05000 156.000
66.10000 168.000
66.15000 167.000
66.20000 153.000
66.25000 166.000
66.30000 159.000
66.35000 135.000
66.40000 161.000
66.45000 144.000
66.50000 126.000
66.55000 139.000
66.60000 153.000
66.65000 144.000
66.70000 160.000
66.75000 153.000
66.80000 141.000
66.85000 150.000
66.90000 150.000
66.95000 148.000
67.00000 142.000
67.05000 172.000
67.10000 147.000
67.15000 167.000
67.20000 175.000
67.25000 159.000
67.30000 148.000
67.35000 148.000
67.40000 133.000
67.45000 155.000
67.50000 131.000
67.55000 148.000
67.60000 151.000
67.65000 135.000
67.70000 157.000
67.75000 161.000
67.80000 137.000
67.85000 167.000
67.90000 145.000
67.95000 134.000
68.00000 184.000
68.05000 143.000
68.10000 151.000
68.15000 153.000
68.20000 171.000
68.25000 145.000
68.30000 150.000
68.35000 164.000
68.40000 147.000
68.45000 142.000
68.50000 136.000
68.55000 154.000
68.60000 141.000
68.65000 134.000
68.70000 164.000
68.75000 160.000
68.80000 144.000
68.85000 148.000
68.90000 151.000
68.95000 173.000
69.00000 162.000
69.05000 125.000
69.10000 148.000
69.15000 143.000
69.20000 140.000
69.25000 139.000
69.30000 139.000
69.35000 146.000
69.40000 147.000
69.45000 149.000
69.50000 135.000
69.55000 143.000
69.60000 137.000
69.65000 139.000
69.70000 134.000
69.75000 153.000
69.80000 137.000
69.85000 131.000
69.90000 143.000
69.95000 135.000
70.00000 151.000
70.05000 141.000
70.10000 140.000
70.15000 127.000
70.20000 144.000
70.25000 140.000
70.30000 151.000
70.35000 155.000
70.40000 144.000
70.45000 135.000
70.50000 126.000
70.55000 139.000
70.60000 173.000
70.65000 138.000
70.70000 138.000
70.75000 147.000
70.80000 139.000
70.85000 141.000
70.90000 136.000
70.95000 146.000
71.00000 152.000
71.05000 150.000
71.10000 140.000
71.15000 120.000
71.20000 135.000
71.25000 140.000
71.30000 153.000
71.35000 145.000
71.40000 136.000
71.45000 126.000
71.50000 137.000
71.55000 148.000
71.60000 155.000
71.65000 152.000
71.70000 148.000
71.75000 137.000
71.80000 142.000
71.85000 119.000
71.90000 149.000
71.95000 156.000
72.00000 139.000
72.05000 140.000
72.10000 136.000
72.15000 162.000
72.20000 157.000
72.25000 135.000
72.30000 146.000
72.35000 140.000
72.40000 140.000
72.45000 140.000
72.50000 134.000
72.55000 146.000
72.60000 138.000
72.65000 139.000
72.70000 148.000
72.75000 145.000
72.80000 125.000
72.85000 140.000
72.90000 139.000
72.95000 122.000
73.00000 151.000
73.05000 125.000
73.10000 139.000
73.15000 139.000
73.20000 145.000
73.25000 120.000
73.30000 136.000
73.35000 158.000
73.40000 135.000
73.45000 131.000
73.50000 134.000
73.55000 124.000
73.60000 120.000
73.65000 135.000
73.70000 124.000
73.75000 146.000
73.80000 119.000
73.85000 133.000
73.90000 122.000
73.95000 129.000
74.00000 140.000
74.05000 127.000
74.10000 138.000
74.15000 128.000
74.20000 124.000
74.25000 145.000
74.30000 140.000
74.35000 133.000
74.40000 133.000
74.45000 121.000
74.50000 131.000
74.55000 148.000
74.60000 113.000
74.65000 127.000
74.70000 130.000
74.75000 125.000
74.80000 120.000
74.85000 117.000
74.90000 121.000
74.95000 146.000
75.00000 139.000
75.05000 121.000
75.10000 130.000
75.15000 127.000
75.20000 131.000
75.25000 153.000
75.30000 135.000
75.35000 120.000
75.40000 118.000
75.45000 116.000
75.50000 124.000
75.55000 136.000
75.60000 128.000
75.65000 124.000
75.70000 154.000
75.75000 136.000
75.80000 152.000
75.85000 124.000
75.90000 136.000
75.95000 114.000
76.00000 135.000
76.05000 125.000
76.10000 130.000
76.15000 128.000
76.20000 127.000
76.25000 152.000
76.30000 134.000
76.35000 138.000
76.40000 127.000
76.45000 125.000
76.50000 129.000
76.55000 131.000
76.60000 107.000
76.65000 113.000
76.70000 106.000
76.75000 122.000
76.80000 131.000
76.85000 142.000
76.90000 127.000
76.95000 125.000
77.00000 146.000
77.05000 137.000
77.10000 152.000
77.15000 138.000
77.20000 132.000
77.25000 121.000
77.30000 118.000
77.35000 126.000
77.40000 132.000
77.45000 125.000
77.50000 133.000
77.55000 147.000
77.60000 125.000
77.65000 141.000
77.70000 137.000
77.75000 121.000
77.80000 145.000
77.85000 128.000
77.90000 124.000
77.95000 112.000
78.00000 141.000
78.05000 155.000
78.10000 132.000
78.15000 126.000
78.20000 140.000
78.25000 139.000
78.30000 146.000
78.35000 150.000
78.40000 134.000
78.45000 132.000
78.50000 147.000
78.55000 132.000
78.60000 141.000
78.65000 150.000
78.70000 132.000
78.75000 135.000
78.80000 106.000
78.85000 134.000
78.90000 112.000
78.95000 132.000
79.00000 131.000
79.05000 107.000
79.10000 122.000
79.15000 107.000
79.20000 140.000
79.25000 135.000
79.30000 139.000
79.35000 147.000
79.40000 141.000
79.45000 126.000
79.50000 114.000
79.55000 128.000
79.60000 113.000
79.65000 132.000
79.70000 124.000
79.75000 121.000
79.80000 122.000
79.85000 136.000
79.90000 145.000
