30.00000 361.000
30.05000 369.000
30.10000 347.000
30.15000 342.000
30.20000 322.000
30.25000 314.000
30.30000 338.000
30.35000 363.000
30.40000 356.000
30.45000 314.000
30.50000 339.000
30.55000 333.000
30.60000 318.000
30.65000 332.000
30.70000 322.000
30.75000 342.000
30.80000 321.000
30.85000 319.000
30.90000 328.000
30.95000 338.000
31.00000 304.000
31.05000 328.000
31.10000 315.000
31.15000 333.000
31.20000 327.000
31.25000 308.000
31.30000 339.000
31.35000 343.000
31.40000 322.000
31.45000 280.000
31.50000 297.000
31.55000 308.000
31.60000 315.000
31.65000 316.000
31.70000 356.000
31.75000 294.000
31.80000 311.000
31.85000 323.000
31.90000 318.000
31.95000 324.000
32.00000 330.000
32.05000 296.000
32.10000 312.000
32.15000 325.000
32.20000 311.000
32.25000 327.000
32.30000 307.000
32.35000 288.000
32.40000 272.000
32.45000 278.000
32.50000 299.000
32.55000 313.000
32.60000 278.000
32.65000 302.000
32.70000 314.000
32.75000 260.000
32.80000 316.000
32.85000 329.000
32.90000 268.000
32.95000 302.000
33.00000 274.000
33.05000 322.000
33.10000 264.000
33.15000 287.000
33.20000 330.000
33.25000 282.000
33.30000 273.000
33.35000 260.000
33.40000 257.000
33.45000 277.000
33.50000 280.000
33.55000 297.000
33.60000 260.000
33.65000 248.000
33.70000 275.000
33.75000 291.000
33.80000 288.000
33.85000 276.000
33.90000 230.000
33.95000 272.000
34.00000 256.000
34.05000 243.000
34.10000 280.000
34.15000 260.000
34.20000 273.000
34.25000 257.000
34.30000 250.000
34.35000 259.000
34.40000 236.000
34.45000 265.000
34.50000 258.000
34.55000 285.000
34.60000 262.000
34.65000 225.000
34.70000 260.000
34.75000 226.000
34.80000 235.000
34.85000 245.000
34.90000 258.000
34.95000 262.000
35.00000 262.000
35.05000 250.000
35.10000 262.000
35.15000 265.000
35.20000 249.000
35.25000 278.000
35.30000 207.000
35.35000 228.000
35.40000 239.000
35.45000 237.000
35.50000 225.000
35.55000 225.000
35.60000 220.000
35.65000 236.000
35.70000 230.000
35.75000 232.000
35.80000 235.000
35.85000 231.000
35.90000 233.000
35.95000 227.000
36.00000 226.000
36.05000 240.000
36.10000 272.000
36.15000 225.000
36.20000 224.000
36.25000 205.000
36.30000 223.000
36.35000 234.000
36.40000 233.000
36.45000 209.000
36.50000 212.000
36.55000 228.000
36.60000 208.000
36.65000 185.000
36.70000 183.000
36.75000 212.000
36.80000 201.000
36.85000 243.000
36.90000 191.000
36.95000 205.000
37.00000 241.000
37.05000 206.000
37.10000 193.000
37.15000 191.000
37.20000 250.000
37.25000 177.000
37.30000 212.000
37.35000 200.000
37.40000 198.000
37.45000 230.000
37.50000 202.000
37.55000 172.000
37.60000 191.000
37.65000 186.000
37.70000 210.000
37.75000 209.000
37.80000 180.000
37.85000 193.000
37.90000 186.000
37.95000 208.000
38.00000 219.000
38.05000 200.000
38.10000 220.000
38.15000 218.000
38.20000 215.000
38.25000 215.000
38.30000 220.000
38.35000 216.000
38.40000 241.000
38.45000 235.000
38.50000 245.000
38.55000 254.000
38.60000 239.000
38.65000 299.000
38.70000 357.000
38.75000 342.000
38.80000 350.000
38.85000 410.000
38.90000 436.000
38.95000 450.000
39.00000 475.000
39.05000 477.000
39.10000 421.000
39.15000 396.000
39.20000 375.000
39.25000 358.000
39.30000 319.000
39.35000 265.000
39.40000 256.000
39.45000 239.000
39.50000 275.000
39.55000 201.000
39.60000 250.000
39.65000 209.000
39.70000 202.000
39.75000 197.000
39.80000 209.000
39.85000 191.000
39.90000 188.000
39.95000 193.000
40.00000 163.000
40.05000 190.000
40.10000 192.000
40.15000 207.000
40.20000 209.000
40.25000 191.000
40.30000 185.000
40.35000 174.000
40.40000 156.000
40.45000 182.000
40.50000 193.000
40.55000 200.000
40.60000 152.000
40.65000 171.000
40.70000 194.000
40.75000 162.000
40.80000 162.000
40.85000 167.000
40.90000 175.000
40.95000 184.000
41.00000 187.000
41.05000 195.000
41.10000 163.000
41.15000 170.000
41.20000 177.000
41.25000 155.000
41.30000 178.000
41.35000 161.000
41.40000 176.000
41.45000 179.000
41.50000 176.000
41.55000 186.000
41.60000 176.000
41.65000 175.000
41.70000 187.000
41.75000 171.000
41.80000 152.000
41.85000 201.000
41.90000 183.000
41.95000 171.000
42.00000 169.000
42.05000 183.000
42.10000 185.000
42.15000 166.000
42.20000 179.000
42.25000 158.000
42.30000 167.000
42.35000 179.000
42.40000 165.000
42.45000 167.000
42.50000 199.000
42.55000 150.000
42.60000 177.000
42.65000 187.000
42.70000 155.000
42.75000 177.000
42.80000 192.000
42.85000 202.000
42.90000 174.000
42.95000 175.000
43.00000 182.000
43.05000 184.000
43.10000 171.000
43.15000 183.000
43.20000 180.000
43.25000 151.000
43.30000 156.000
43.35000 154.000
43.40000 176.000
43.45000 143.000
43.50000 171.000
43.55000 173.000
43.60000 170.000
43.65000 169.000
43.70000 146.000
43.75000 172.000
43.80000 184.000
43.85000 183.000
43.90000 169.000
43.95000 184.000
44.00000 179.000
44.05000 175.000
44.10000 184.000
44.15000 187.000
44.20000 185.000
44.25000 210.000
44.30000 187.000
44.35000 199.000
44.40000 197.000
44.45000 181.000
44.50000 180.000
44.55000 199.000
44.60000 170.000
44.65000 215.000
44.70000 185.000
44.75000 201.000
44.80000 215.000
44.85000 181.000
44.90000 210.000
44.95000 193.000
45.00000 206.000
45.05000 234.000
45.10000 226.000
45.15000 221.000
45.20000 237.000
45.25000 240.000
45.30000 219.000
45.35000 213.000
45.40000 240.000
45.45000 205.000
45.50000 200.000
45.55000 196.000
45.60000 206.000
45.65000 196.000
45.70000 184.000
45.75000 191.000
45.80000 172.000
45.85000 175.000
45.90000 171.000
45.95000 188.000
46.00000 173.000
46.05000 179.000
46.10000 184.000
46.15000 170.000
46.20000 176.000
46.25000 171.000
46.30000 155.000
46.35000 155.000
46.40000 167.000
46.45000 164.000
46.50000 163.000
46.55000 152.000
46.60000 179.000
46.65000 177.000
46.70000 154.000
46.75000 156.000
46.80000 144.000
46.85000 165.000
46.90000 154.000
46.95000 156.000
47.00000 170.000
47.05000 174.000
47.10000 172.000
47.15000 180.000
47.20000 171.000
47.25000 163.000
47.30000 174.000
47.35000 153.000
47.40000 160.000
47.45000 151.000
47.50000 164.000
47.55000 137.000
47.60000 154.000
47.65000 159.000
47.70000 149.000
47.75000 162.000
47.80000 167.000
47.85000 168.000
47.90000 151.000
47.95000 158.000
48.00000 165.000
48.05000 159.000
48.10000 158.000
48.15000 136.000
48.20000 140.000
48.25000 144.000
48.30000 148.000
48.35000 134.000
48.40000 162.000
48.45000 154.000
48.50000 164.000
48.55000 174.000
48.60000 154.000
48.65000 161.000
48.70000 149.000
48.75000 161.000
48.80000 177.000
48.85000 143.000
48.90000 168.000
48.95000 147.000
49.00000 142.000
49.05000 146.000
49.10000 155.000
49.15000 143.000
49.20000 141.000
49.25000 148.000
49.30000 146.000
49.35000 157.000
49.40000 165.000
49.45000 160.000
49.50000 137.000
49.55000 169.000
49.60000 146.000
49.65000 144.000
49.70000 159.000
49.75000 184.000
49.80000 166.000
49.85000 137.000
49.90000 158.000
49.95000 153.000
50.00000 155.000
50.05000 165.000
50.10000 162.000
50.15000 140.000
50.20000 139.000
50.25000 139.000
50.30000 162.000
50.35000 138.000
50.40000 166.000
50.45000 153.000
50.50000 139.000
50.55000 139.000
50.60000 146.000
50.65000 116.000
50.70000 138.000
50.75000 140.000
50.80000 125.000
50.85000 154.000
50.90000 145.000
50.95000 155.000
51.00000 157.000
51.05000 137.000
51.10000 162.000
51.15000 158.000
51.20000 143.000
51.25000 146.000
51.30000 151.000
51.35000 153.000
51.40000 124.000
51.45000 171.000
51.50000 149.000
51.55000 145.000
51.60000 156.000
51.65000 153.000
51.70000 142.000
51.75000 158.000
51.80000 133.000
51.85000 153.000
51.90000 130.000
51.95000 158.000
52.00000 119.000
52.05000 130.000
52.10000 154.000
52.15000 136.000
52.20000 150.000
52.25000 139.000
52.30000 136.000
52.35000 126.000
52.40000 150.000
52.45000 151.000
52.50000 164.000
52.55000 158.000
52.60000 128.000
52.65000 148.000
52.70000 138.000
52.75000 136.000
52.80000 153.000
52.85000 145.000
52.90000 133.000
52.95000 153.000
53.00000 143.000
53.05000 147.000
53.10000 169.000
53.15000 158.000
53.20000 139.000
53.25000 131.000
53.30000 151.000
53.35000 158.000
53.40000 168.000
53.45000 131.000
53.50000 139.000
53.55000 146.000
53.60000 141.000
53.65000 146.000
53.70000 126.000
53.75000 131.000
53.80000 142.000
53.85000 152.000
53.90000 148.000
53.95000 123.000
54.00000 145.000
54.05000 147.000
54.10000 163.000
54.15000 140.000
54.20000 172.000
54.25000 135.000
54.30000 142.000
54.35000 142.000
54.40000 135.000
54.45000 160.000
54.50000 138.000
54.55000 143.000
54.60000 163.000
54.65000 154.000
54.70000 132.000
54.75000 161.000
54.80000 146.000
54.85000 119.000
54.90000 138.000
54.95000 135.000
55.00000 128.000
55.05000 125.000
55.10000 132.000
55.15000 152.000
55.20000 148.000
55.25000 159.000
55.30000 156.000
55.35000 170.000
55.40000 136.000
55.45000 149.000
55.50000 142.000
55.55000 130.000
55.60000 129.000
55.65000 142.000
55.70000 142.000
55.75000 153.000
55.80000 151.000
55.85000 135.000
55.90000 148.000
55.95000 134.000
56.00000 143.000
56.05000 132.000
56.10000 139.000
56.15000 147.000
56.20000 133.000
56.25000 145.000
56.30000 129.000
56.35000 147.000
56.40000 133.000
56.45000 148.000
56.50000 131.000
56.55000 144.000
56.60000 170.000
56.65000 155.000
56.70000 147.000
56.75000 161.000
56.80000 144.000
56.85000 148.000
56.90000 165.000
56.95000 139.000
57.00000 140.000
57.05000 152.000
57.10000 163.000
57.15000 144.000
57.20000 159.000
57.25000 124.000
57.30000 145.000
57.35000 146.000
57.40000 128.000
57.45000 152.000
57.50000 149.000
57.55000 172.000
57.60000 150.000
57.65000 127.000
57.70000 158.000
57.75000 125.000
57.80000 163.000
57.85000 152.000
57.90000 145.000
57.95000 152.000
58.00000 144.000
58.05000 142.000
58.10000 145.000
58.15000 133.000
58.20000 143.000
58.25000 146.000
58.30000 166.000
58.35000 143.000
58.40000 155.000
58.45000 139.000
58.50000 143.000
58.55000 150.000
58.60000 131.000
58.65000 137.000
58.70000 152.000
58.75000 160.000
58.80000 148.000
58.85000 143.000
58.90000 139.000
58.95000 154.000
59.00000 154.000
59.05000 153.000
59.10000 147.000
59.15000 141.000
59.20000 142.000
59.25000 128.000
59.30000 143.000
59.35000 123.000
59.40000 142.000
59.45000 142.000
59.50000 157.000
59.55000 143.000
59.60000 173.000
59.65000 135.000
59.70000 138.000
59.75000 147.000
59.80000 142.000
59.85000 136.000
59.90000 143.000
59.95000 138.000
60.00000 153.000
60.05000 172.000
60.10000 152.000
60.15000 155.000
60.20000 146.000
60.25000 146.000
60.30000 128.000
60.35000 141.000
60.40000 150.000
60.45000 150.000
60.50000 146.000
60.55000 153.000
60.60000 153.000
60.65000 153.000
60.70000 173.000
60.75000 151.000
60.80000 156.000
60.85000 182.000
60.90000 156.000
60.95000 144.000
61.00000 141.000
61.05000 159.000
61.10000 157.000
61.15000 139.000
61.20000 145.000
61.25000 158.000
61.30000 155.000
61.35000 141.000
61.40000 168.000
61.45000 151.000
61.50000 125.000
61.55000 134.000
61.60000 142.000
61.65000 145.000
61.70000 162.000
61.75000 137.000
61.80000 119.000
61.85000 146.000
61.90000 135.000
61.95000 156.000
62.00000 123.000
62.05000 142.000
62.10000 134.000
62.15000 158.000
62.20000 166.000
62.25000 156.000
62.30000 164.000
62.35000 139.000
62.40000 156.000
62.45000 137.000
62.50000 154.000
62.55000 138.000
62.60000 151.000
62.65000 119.000
62.70000 141.000
62.75000 157.000
62.80000 147.000
62.85000 150.000
62.90000 126.000
62.95000 151.000
63.00000 147.000
63.05000 157.000
63.10000 161.000
63.15000 157.000
63.20000 132.000
63.25000 151.000
63.30000 165.000
63.35000 139.000
63.40000 160.000
63.45000 137.000
63.50000 149.000
63.55000 173.000
63.60000 159.000
63.65000 151.000
63.70000 146.000
63.75000 138.000
63.80000 156.000
63.85000 153.000
63.90000 151.000
63.95000 146.000
64.00000 166.000
64.05000 135.000
64.10000 146.000
64.15000 145.000
64.20000 148.000
64.25000 143.000
64.30000 176.000
64.35000 129.000
64.40000 146.000
64.45000 149.000
64.50000 138.000
64.55000 173.000
64.60000 161.000
64.65000 131.000
64.70000 135.000
64.75000 148.000
64.80000 183.000
64.85000 161.000
64.90000 162.000
64.95000 166.000
65.00000 156.000
65.05000 168.000
65.10000 180.000
65.15000 181.000
65.20000 186.000
65.25000 211.000
65.30000 181.000
65.35000 178.000
65.40000 178.000
65.45000 181.000
65.50000 185.000
65.55000 190.000
65.60000 172.000
65.65000 174.000
65.70000 187.000
65.75000 169.000
65.80000 177.000
65.85000 168.000
65.90000 159.000
65.95000 197.000
66.00000 137.000
66.05000 147.000
66.10000 167.000
66.15000 141.000
66.20000 164.000
66.25000 130.000
66.30000 159.000
66.35000 152.000
66.40000 151.000
66.45000 161.000
66.50000 174.000
66.55000 172.000
66.60000 156.000
66.65000 127.000
66.70000 148.000
66.75000 135.000
66.80000 158.000
66.85000 141.000
66.90000 131.000
66.95000 124.000
67.00000 128.000
67.05000 147.000
67.10000 145.000
67.15000 132.000
67.20000 159.000
67.25000 141.000
67.30000 131.000
67.35000 157.000
67.40000 141.000
67.45000 122.000
67.50000 124.000
67.55000 144.000
67.60000 152.000
67.65000 158.000
67.70000 146.000
67.75000 141.000
67.80000 155.000
67.85000 129.000
67.90000 125.000
67.95000 150.000
68.00000 137.000
68.05000 116.000
68.10000 158.000
68.15000 129.000
68.20000 160.000
68.25000 126.000
68.30000 163.000
68.35000 166.000
68.40000 162.000
68.45000 158.000
68.50000 127.000
68.55000 151.000
68.60000 121.000
68.65000 139.000
68.70000 124.000
68.75000 144.000
68.80000 150.000
68.85000 145.000
68.90000 133.000
68.95000 153.000
69.00000 139.000
69.05000 147.000
69.10000 129.000
69.15000 121.000
69.20000 136.000
69.25000 144.000
69.30000 142.000
69.35000 117.000
69.40000 165.000
69.45000 144.000
69.50000 153.000
69.55000 144.000
69.60000 137.000
69.65000 130.000
69.70000 153.000
69.75000 131.000
69.80000 146.000
69.85000 150.000
69.90000 126.000
69.95000 133.000
70.00000 118.000
70.05000 145.000
70.10000 134.000
70.15000 137.000
70.20000 132.000
70.25000 121.000
70.30000 155.000
70.35000 138.000
70.40000 133.000
70.45000 141.000
70.50000 125.000
70.55000 125.000
70.60000 141.000
70.65000 119.000
70.70000 133.000
70.75000 124.000
70.80000 136.000
70.85000 131.000
70.90000 135.000
70.95000 138.000
71.00000 126.000
71.05000 107.000
71.10000 149.000
71.15000 126.000
71.20000 128.000
71.25000 111.000
71.30000 126.000
71.35000 123.000
71.40000 143.000
71.45000 131.000
71.50000 125.000
71.55000 125.000
71.60000 131.000
71.65000 119.000
71.70000 137.000
71.75000 142.000
71.80000 141.000
71.85000 155.000
71.90000 137.000
71.95000 149.000
72.00000 116.000
72.05000 150.000
72.10000 124.000
72.15000 134.000
72.20000 141.000
72.25000 123.000
72.30000 141.000
72.35000 139.000
72.40000 113.000
72.45000 141.000
72.50000 116.000
72.55000 125.000
72.60000 130.000
72.65000 118.000
72.70000 137.000
72.75000 119.000
72.80000 128.000
72.85000 122.000
72.90000 142.000
72.95000 123.000
73.00000 131.000
73.05000 127.000
73.10000 132.000
73.15000 121.000
73.20000 124.000
73.25000 125.000
73.30000 141.000
73.35000 133.000
73.40000 131.000
73.45000 128.000
73.50000 126.000
73.55000 122.000
73.60000 163.000
73.65000 134.000
73.70000 109.000
73.75000 121.000
73.80000 125.000
73.85000 130.000
73.90000 134.000
73.95000 136.000
74.00000 136.000
74.05000 139.000
74.10000 132.000
74.15000 121.000
74.20000 142.000
74.25000 133.000
74.30000 125.000
74.35000 125.000
74.40000 124.000
74.45000 137.000
74.50000 123.000
74.55000 138.000
74.60000 126.000
74.65000 119.000
74.70000 123.000
74.75000 116.000
74.80000 138.000
74.85000 114.000
74.90000 94.000
74.95000 125.000
75.00000 132.000
75.05000 112.000
75.10000 153.000
75.15000 133.000
75.20000 126.000
75.25000 119.000
75.30000 127.000
75.35000 118.000
75.40000 126.000
75.45000 123.000
75.50000 127.000
75.55000 106.000
75.60000 103.000
75.65000 124.000
75.70000 125.000
75.75000 136.000
75.80000 128.000
75.85000 123.000
75.90000 121.000
75.95000 120.000
76.00000 116.000
76.05000 113.000
76.10000 106.000
76.15000 133.000
76.20000 146.000
76.25000 138.000
76.30000 118.000
76.35000 121.000
76.40000 112.000
76.45000 126.000
76.50000 130.000
76.55000 142.000
76.60000 145.000
76.65000 111.000
76.70000 140.000
76.75000 131.000
76.80000 147.000
76.85000 121.000
76.90000 104.000
76.95000 140.000
77.00000 122.000
77.05000 128.000
77.10000 137.000
77.15000 114.000
77.20000 112.000
77.25000 137.000
77.30000 140.000
77.35000 117.000
77.40000 139.000
77.45000 136.000
77.50000 137.000
77.55000 156.000
77.60000 143.000
77.65000 136.000
77.70000 139.000
77.75000 125.000
77.80000 136.000
77.85000 168.000
77.90000 137.000
77.95000 127.000
78.00000 125.000
78.05000 151.000
78.10000 157.000
78.15000 149.000
78.20000 153.000
78.25000 151.000
78.30000 154.000
78.35000 152.000
78.40000 145.000
78.45000 148.000
78.50000 150.000
78.55000 155.000
78.60000 134.000
78.65000 141.000
78.70000 157.000
78.75000 139.000
78.80000 139.000
78.85000 126.000
78.90000 141.000
78.95000 131.000
79.00000 136.000
79.05000 121.000
79.10000 127.000
79.15000 130.000
79.20000 136.000
79.25000 134.000
79.30000 126.000
79.35000 125.000
79.40000 106.000
79.45000 118.000
79.50000 140.000
79.55000 129.000
79.60000 124.000
79.65000 110.000
79.70000 118.000
79.75000 125.000
79.80000 119.000
79.85000 132.000
79.90000 130.000
