30.00000 224.000
30.05000 232.000
30.10000 234.000
30.15000 233.000
30.20000 215.000
30.25000 230.000
30.30000 243.000
30.35000 216.000
30.40000 218.000
30.45000 224.000
30.50000 239.000
30.55000 236.000
30.60000 212.000
30.65000 231.000
30.70000 206.000
30.75000 210.000
30.80000 235.000
30.85000 227.000
30.90000 236.000
30.95000 217.000
31.00000 236.000
31.05000 214.000
31.10000 205.000
31.15000 216.000
31.20000 223.000
31.25000 238.000
31.30000 197.000
31.35000 212.000
31.40000 243.000
31.45000 225.000
31.50000 227.000
31.55000 236.000
31.60000 222.000
31.65000 205.000
31.70000 236.000
31.75000 199.000
31.80000 225.000
31.85000 224.000
31.90000 210.000
31.95000 207.000
32.00000 196.000
32.05000 207.000
32.10000 218.000
32.15000 205.000
32.20000 209.000
32.25000 214.000
32.30000 200.000
32.35000 203.000
32.40000 213.000
32.45000 183.000
32.50000 185.000
32.55000 191.000
32.60000 221.000
32.65000 212.000
32.70000 202.000
32.75000 168.000
32.80000 187.000
32.85000 191.000
32.90000 205.000
32.95000 207.000
33.00000 203.000
33.05000 189.000
33.10000 198.000
33.15000 175.000
33.20000 202.000
33.25000 197.000
33.30000 205.000
33.35000 184.000
33.40000 190.000
33.45000 160.000
33.50000 201.000
33.55000 184.000
33.60000 206.000
33.65000 194.000
33.70000 179.000
33.75000 190.000
33.80000 188.000
33.85000 186.000
33.90000 201.000
33.95000 202.000
34.00000 170.000
34.05000 171.000
34.10000 180.000
34.15000 186.000
34.20000 169.000
34.25000 167.000
34.30000 207.000
34.35000 150.000
34.40000 181.000
34.45000 194.000
34.50000 195.000
34.55000 161.000
34.60000 198.000
34.65000 185.000
34.70000 201.000
34.75000 192.000
34.80000 185.000
34.85000 175.000
34.90000 189.000
34.95000 167.000
35.00000 142.000
35.05000 149.000
35.10000 187.000
35.15000 182.000
35.20000 173.000
35.25000 190.000
35.30000 161.000
35.35000 188.000
35.40000 181.000
35.45000 185.000
35.50000 154.000
35.55000 184.000
35.60000 160.000
35.65000 156.000
35.70000 137.000
35.75000 159.000
35.80000 168.000
35.85000 162.000
35.90000 164.000
35.95000 140.000
36.00000 158.000
36.05000 130.000
36.10000 147.000
36.15000 159.000
36.20000 159.000
36.25000 162.000
36.30000 148.000
36.35000 129.000
36.40000 160.000
36.45000 149.000
36.50000 138.000
36.55000 142.000
36.60000 158.000
36.65000 140.000
36.70000 147.000
36.75000 149.000
36.80000 139.000
36.85000 156.000
36.90000 146.000
36.95000 156.000
37.00000 156.000
37.05000 136.000
37.10000 130.000
37.15000 132.000
37.20000 151.000
37.25000 136.000
37.30000 125.000
37.35000 148.000
37.40000 150.000
37.45000 149.000
37.50000 133.000
37.55000 136.000
37.60000 146.000
37.65000 146.000
37.70000 145.000
37.75000 148.000
37.80000 140.000
37.85000 139.000
37.90000 142.000
37.95000 146.000
38.00000 136.000
38.05000 154.000
38.10000 156.000
38.15000 142.000
38.20000 153.000
38.25000 140.000
38.30000 138.000
38.35000 144.000
38.40000 137.000
38.45000 162.000
38.50000 166.000
38.55000 172.000
38.60000 158.000
38.65000 154.000
38.70000 171.000
38.75000 203.000
38.80000 217.000
38.85000 233.000
38.90000 332.000
38.95000 400.000
39.00000 653.000
39.05000 862.000
39.10000 1021.000
39.15000 1133.000
39.20000 998.000
39.25000 885.000
39.30000 618.000
39.35000 415.000
39.40000 299.000
39.45000 241.000
39.50000 209.000
39.55000 199.000
39.60000 135.000
39.65000 152.000
39.70000 169.000
39.75000 129.000
39.80000 119.000
39.85000 143.000
39.90000 157.000
39.95000 139.000
40.00000 129.000
40.05000 144.000
40.10000 118.000
40.15000 140.000
40.20000 130.000
40.25000 133.000
40.30000 118.000
40.35000 122.000
40.40000 107.000
40.45000 125.000
40.50000 147.000
40.55000 127.000
40.60000 126.000
40.65000 132.000
40.70000 128.000
40.75000 132.000
40.80000 126.000
40.85000 149.000
40.90000 118.000
40.95000 124.000
41.00000 119.000
41.05000 140.000
41.10000 120.000
41.15000 115.000
41.20000 147.000
41.25000 120.000
41.30000 114.000
41.35000 124.000
41.40000 139.000
41.45000 119.000
41.50000 142.000
41.55000 142.000
41.60000 140.000
41.65000 109.000
41.70000 123.000
41.75000 134.000
41.80000 140.000
41.85000 121.000
41.90000 121.000
41.95000 128.000
42.00000 139.000
42.05000 120.000
42.10000 110.000
42.15000 134.000
42.20000 112.000
42.25000 125.000
42.30000 124.000
42.35000 131.000
42.40000 124.000
42.45000 113.000
42.50000 105.000
42.55000 124.000
42.60000 115.000
42.65000 109.000
42.70000 106.000
42.75000 119.000
42.80000 105.000
42.85000 123.000
42.90000 113.000
42.95000 114.000
43.00000 139.000
43.05000 108.000
43.10000 118.000
43.15000 125.000
43.20000 103.000
43.25000 106.000
43.30000 112.000
43.35000 134.000
43.40000 124.000
43.45000 137.000
43.50000 117.000
43.55000 104.000
43.60000 128.000
43.65000 127.000
43.70000 140.000
43.75000 113.000
43.80000 111.000
43.85000 142.000
43.90000 132.000
43.95000 131.000
44.00000 120.000
44.05000 140.000
44.10000 104.000
44.15000 130.000
44.20000 115.000
44.25000 126.000
44.30000 117.000
44.35000 110.000
44.40000 125.000
44.45000 120.000
44.50000 128.000
44.55000 157.000
44.60000 134.000
44.65000 136.000
44.70000 141.000
44.75000 119.000
44.80000 160.000
44.85000 150.000
44.90000 143.000
44.95000 167.000
45.00000 205.000
45.05000 213.000
45.10000 235.000
45.15000 257.000
45.20000 317.000
45.25000 400.000
45.30000 412.000
45.35000 426.000
45.40000 383.000
45.45000 373.000
45.50000 306.000
45.55000 275.000
45.60000 209.000
45.65000 174.000
45.70000 169.000
45.75000 130.000
45.80000 141.000
45.85000 124.000
45.90000 138.000
45.95000 148.000
46.00000 150.000
46.05000 138.000
46.10000 100.000
46.15000 141.000
46.20000 117.000
46.25000 137.000
46.30000 126.000
46.35000 117.000
46.40000 117.000
46.45000 108.000
46.50000 121.000
46.55000 130.000
46.60000 104.000
46.65000 108.000
46.70000 118.000
46.75000 140.000
46.80000 119.000
46.85000 105.000
46.90000 111.000
46.95000 114.000
47.00000 107.000
47.05000 127.000
47.10000 112.000
47.15000 111.000
47.20000 111.000
47.25000 110.000
47.30000 117.000
47.35000 114.000
47.40000 122.000
47.45000 132.000
47.50000 114.000
47.55000 119.000
47.60000 124.000
47.65000 123.000
47.70000 115.000
47.75000 117.000
47.80000 105.000
47.85000 110.000
47.90000 139.000
47.95000 111.000
48.00000 127.000
48.05000 114.000
48.10000 110.000
48.15000 119.000
48.20000 128.000
48.25000 107.000
48.30000 118.000
48.35000 117.000
48.40000 111.000
48.45000 126.000
48.50000 108.000
48.55000 122.000
48.60000 132.000
48.65000 100.000
48.70000 111.000
48.75000 115.000
48.80000 109.000
48.85000 97.000
48.90000 127.000
48.95000 107.000
49.00000 109.000
49.05000 119.000
49.10000 99.000
49.15000 110.000
49.20000 124.000
49.25000 97.000
49.30000 105.000
49.35000 118.000
49.40000 92.000
49.45000 116.000
49.50000 108.000
49.55000 104.000
49.60000 125.000
49.65000 96.000
49.70000 110.000
49.75000 122.000
49.80000 104.000
49.85000 111.000
49.90000 109.000
49.95000 82.000
50.00000 124.000
50.05000 104.000
50.10000 104.000
50.15000 89.000
50.20000 105.000
50.25000 104.000
50.30000 106.000
50.35000 102.000
50.40000 94.000
50.45000 89.000
50.50000 115.000
50.55000 111.000
50.60000 113.000
50.65000 102.000
50.70000 111.000
50.75000 114.000
50.80000 118.000
50.85000 94.000
50.90000 106.000
50.95000 96.000
51.00000 106.000
51.05000 126.000
51.10000 108.000
51.15000 97.000
51.20000 110.000
51.25000 100.000
51.30000 108.000
51.35000 118.000
51.40000 96.000
51.45000 103.000
51.50000 126.000
51.55000 112.000
51.60000 119.000
51.65000 125.000
51.70000 101.000
51.75000 110.000
51.80000 100.000
51.85000 116.000
51.90000 90.000
51.95000 117.000
52.00000 107.000
52.05000 114.000
52.10000 122.000
52.15000 78.000
52.20000 80.000
52.25000 118.000
52.30000 98.000
52.35000 104.000
52.40000 120.000
52.45000 108.000
52.50000 98.000
52.55000 107.000
52.60000 101.000
52.65000 92.000
52.70000 119.000
52.75000 120.000
52.80000 97.000
52.85000 98.000
52.90000 97.000
52.95000 99.000
53.00000 117.000
53.05000 115.000
53.10000 111.000
53.15000 108.000
53.20000 103.000
53.25000 112.000
53.30000 111.000
53.35000 102.000
53.40000 112.000
53.45000 142.000
53.50000 112.000
53.55000 108.000
53.60000 121.000
53.65000 112.000
53.70000 108.000
53.75000 110.000
53.80000 125.000
53.85000 114.000
53.90000 127.000
53.95000 121.000
54.00000 105.000
54.05000 114.000
54.10000 104.000
54.15000 91.000
54.20000 129.000
54.25000 85.000
54.30000 111.000
54.35000 115.000
54.40000 97.000
54.45000 112.000
54.50000 118.000
54.55000 100.000
54.60000 112.000
54.65000 103.000
54.70000 100.000
54.75000 109.000
54.80000 101.000
54.85000 113.000
54.90000 121.000
54.95000 103.000
55.00000 94.000
55.05000 106.000
55.10000 92.000
55.15000 107.000
55.20000 112.000
55.25000 120.000
55.30000 115.000
55.35000 111.000
55.40000 114.000
55.45000 92.000
55.50000 118.000
55.55000 115.000
55.60000 113.000
55.65000 118.000
55.70000 100.000
55.75000 111.000
55.80000 104.000
55.85000 114.000
55.90000 117.000
55.95000 106.000
56.00000 111.000
56.05000 93.000
56.10000 109.000
56.15000 106.000
56.20000 97.000
56.25000 100.000
56.30000 115.000
56.35000 119.000
56.40000 101.000
56.45000 105.000
56.50000 90.000
56.55000 112.000
56.60000 113.000
56.65000 120.000
56.70000 123.000
56.75000 109.000
56.80000 116.000
56.85000 104.000
56.90000 106.000
56.95000 112.000
57.00000 107.000
57.05000 114.000
57.10000 106.000
57.15000 109.000
57.20000 115.000
57.25000 97.000
57.30000 112.000
57.35000 103.000
57.40000 100.000
57.45000 118.000
57.50000 109.000
57.55000 120.000
57.60000 99.000
57.65000 97.000
57.70000 115.000
57.75000 122.000
57.80000 104.000
57.85000 102.000
57.90000 85.000
57.95000 105.000
58.00000 110.000
58.05000 89.000
58.10000 99.000
58.15000 114.000
58.20000 128.000
58.25000 94.000
58.30000 113.000
58.35000 104.000
58.40000 98.000
58.45000 114.000
58.50000 130.000
58.55000 111.000
58.60000 106.000
58.65000 111.000
58.70000 130.000
58.75000 106.000
58.80000 105.000
58.85000 108.000
58.90000 119.000
58.95000 122.000
59.00000 119.000
59.05000 110.000
59.10000 120.000
59.15000 121.000
59.20000 116.000
59.25000 114.000
59.30000 113.000
59.35000 111.000
59.40000 106.000
59.45000 120.000
59.50000 106.000
59.55000 138.000
59.60000 114.000
59.65000 123.000
59.70000 114.000
59.75000 133.000
59.80000 105.000
59.85000 112.000
59.90000 117.000
59.95000 102.000
60.00000 108.000
60.05000 135.000
60.10000 113.000
60.15000 126.000
60.20000 129.000
60.25000 108.000
60.30000 111.000
60.35000 113.000
60.40000 108.000
60.45000 91.000
60.50000 112.000
60.55000 120.000
60.60000 120.000
60.65000 109.000
60.70000 120.000
60.75000 100.000
60.80000 116.000
60.85000 120.000
60.90000 122.000
60.95000 100.000
61.00000 109.000
61.05000 118.000
61.10000 107.000
61.15000 105.000
61.20000 121.000
61.25000 128.000
61.30000 131.000
61.35000 106.000
61.40000 134.000
61.45000 115.000
61.50000 104.000
61.55000 96.000
61.60000 107.000
61.65000 105.000
61.70000 118.000
61.75000 104.000
61.80000 116.000
61.85000 121.000
61.90000 119.000
61.95000 127.000
62.00000 133.000
62.05000 119.000
62.10000 119.000
62.15000 103.000
62.20000 124.000
62.25000 101.000
62.30000 112.000
62.35000 100.000
62.40000 125.000
62.45000 119.000
62.50000 118.000
62.55000 105.000
62.60000 129.000
62.65000 120.000
62.70000 118.000
62.75000 115.000
62.80000 141.000
62.85000 110.000
62.90000 109.000
62.95000 127.000
63.00000 134.000
63.05000 123.000
63.10000 115.000
63.15000 121.000
63.20000 112.000
63.25000 116.000
63.30000 117.000
63.35000 131.000
63.40000 121.000
63.45000 105.000
63.50000 135.000
63.55000 109.000
63.60000 146.000
63.65000 118.000
63.70000 110.000
63.75000 115.000
63.80000 131.000
63.85000 126.000
63.90000 115.000
63.95000 117.000
64.00000 123.000
64.05000 112.000
64.10000 122.000
64.15000 109.000
64.20000 122.000
64.25000 121.000
64.30000 135.000
64.35000 108.000
64.40000 99.000
64.45000 115.000
64.50000 107.000
64.55000 101.000
64.60000 121.000
64.65000 113.000
64.70000 109.000
64.75000 130.000
64.80000 106.000
64.85000 132.000
64.90000 137.000
64.95000 120.000
65.00000 127.000
65.05000 119.000
65.10000 143.000
65.15000 156.000
65.20000 164.000
65.25000 172.000
65.30000 203.000
65.35000 215.000
65.40000 290.000
65.45000 265.000
65.50000 278.000
65.55000 245.000
65.60000 237.000
65.65000 212.000
65.70000 168.000
65.75000 181.000
65.80000 139.000
65.85000 152.000
65.90000 118.000
65.95000 137.000
66.00000 133.000
66.05000 117.000
66.10000 109.000
66.15000 134.000
66.20000 130.000
66.25000 114.000
66.30000 147.000
66.35000 114.000
66.40000 109.000
66.45000 114.000
66.50000 105.000
66.55000 127.000
66.60000 110.000
66.65000 130.000
66.70000 103.000
66.75000 114.000
66.80000 102.000
66.85000 113.000
66.90000 114.000
66.95000 132.000
67.00000 101.000
67.05000 126.000
67.10000 122.000
67.15000 100.000
67.20000 129.000
67.25000 115.000
67.30000 116.000
67.35000 108.000
67.40000 116.000
67.45000 108.000
67.50000 112.000
67.55000 100.000
67.60000 123.000
67.65000 97.000
67.70000 113.000
67.75000 147.000
67.80000 119.000
67.85000 90.000
67.90000 115.000
67.95000 116.000
68.00000 113.000
68.05000 120.000
68.10000 109.000
68.15000 100.000
68.20000 119.000
68.25000 102.000
68.30000 120.000
68.35000 123.000
68.40000 126.000
68.45000 103.000
68.50000 108.000
68.55000 117.000
68.60000 110.000
68.65000 122.000
68.70000 104.000
68.75000 120.000
68.80000 108.000
68.85000 107.000
68.90000 104.000
68.95000 100.000
69.00000 128.000
69.05000 118.000
69.10000 123.000
69.15000 88.000
69.20000 116.000
69.25000 106.000
69.30000 136.000
69.35000 107.000
69.40000 112.000
69.45000 112.000
69.50000 110.000
69.55000 98.000
69.60000 100.000
69.65000 106.000
69.70000 91.000
69.75000 111.000
69.80000 100.000
69.85000 116.000
69.90000 106.000
69.95000 115.000
70.00000 115.000
70.05000 122.000
70.10000 110.000
70.15000 115.000
70.20000 106.000
70.25000 99.000
70.30000 113.000
70.35000 98.000
70.40000 116.000
70.45000 119.000
70.50000 99.000
70.55000 113.000
70.60000 112.000
70.65000 107.000
70.70000 125.000
70.75000 120.000
70.80000 94.000
70.85000 125.000
70.90000 109.000
70.95000 116.000
71.00000 103.000
71.05000 121.000
71.10000 115.000
71.15000 118.000
71.20000 84.000
71.25000 103.000
71.30000 114.000
71.35000 102.000
71.40000 117.000
71.45000 95.000
71.50000 127.000
71.55000 96.000
71.60000 112.000
71.65000 98.000
71.70000 111.000
71.75000 111.000
71.80000 101.000
71.85000 103.000
71.90000 107.000
71.95000 100.000
72.00000 103.000
72.05000 110.000
72.10000 102.000
72.15000 94.000
72.20000 100.000
72.25000 91.000
72.30000 100.000
72.35000 114.000
72.40000 130.000
72.45000 111.000
72.50000 106.000
72.55000 97.000
72.60000 121.000
72.65000 105.000
72.70000 104.000
72.75000 107.000
72.80000 120.000
72.85000 114.000
72.90000 119.000
72.95000 104.000
73.00000 99.000
73.05000 93.000
73.10000 125.000
73.15000 101.000
73.20000 115.000
73.25000 101.000
73.30000 106.000
73.35000 115.000
73.40000 100.000
73.45000 110.000
73.50000 110.000
73.55000 84.000
73.60000 115.000
73.65000 107.000
73.70000 100.000
73.75000 89.000
73.80000 103.000
73.85000 102.000
73.90000 117.000
73.95000 106.000
74.00000 90.000
74.05000 100.000
74.10000 91.000
74.15000 115.000
74.20000 101.000
74.25000 95.000
74.30000 112.000
74.35000 87.000
74.40000 101.000
74.45000 108.000
74.50000 120.000
74.55000 86.000
74.60000 90.000
74.65000 114.000
74.70000 113.000
74.75000 106.000
74.80000 110.000
74.85000 102.000
74.90000 107.000
74.95000 108.000
75.00000 108.000
75.05000 88.000
75.10000 102.000
75.15000 82.000
75.20000 101.000
75.25000 108.000
75.30000 105.000
75.35000 100.000
75.40000 108.000
75.45000 103.000
75.50000 110.000
75.55000 98.000
75.60000 100.000
75.65000 107.000
75.70000 92.000
75.75000 93.000
75.80000 84.000
75.85000 95.000
75.90000 107.000
75.95000 114.000
76.00000 107.000
76.05000 106.000
76.10000 100.000
76.15000 77.000
76.20000 98.000
76.25000 99.000
76.30000 106.000
76.35000 98.000
76.40000 100.000
76.45000 105.000
76.50000 99.000
76.55000 100.000
76.60000 119.000
76.65000 116.000
76.70000 91.000
76.75000 98.000
76.80000 115.000
76.85000 107.000
76.90000 105.000
76.95000 105.000
77.00000 110.000
77.05000 90.000
77.10000 111.000
77.15000 103.000
77.20000 113.000
77.25000 102.000
77.30000 97.000
77.35000 119.000
77.40000 99.000
77.45000 96.000
77.50000 120.000
77.55000 94.000
77.60000 92.000
77.65000 119.000
77.70000 102.000
77.75000 109.000
77.80000 113.000
77.85000 114.000
77.90000 135.000
77.95000 118.000
78.00000 118.000
78.05000 127.000
78.10000 149.000
78.15000 171.000
78.20000 162.000
78.25000 205.000
78.30000 233.000
78.35000 247.000
78.40000 274.000
78.45000 227.000
78.50000 212.000
78.55000 225.000
78.60000 204.000
78.65000 178.000
78.70000 166.000
78.75000 126.000
78.80000 158.000
78.85000 137.000
78.90000 127.000
78.95000 102.000
79.00000 100.000
79.05000 110.000
79.10000 125.000
79.15000 107.000
79.20000 96.000
79.25000 103.000
79.30000 99.000
79.35000 97.000
79.40000 111.000
79.45000 95.000
79.50000 106.000
79.55000 104.000
79.60000 101.000
79.65000 95.000
79.70000 112.000
79.75000 104.000
79.80000 108.000
79.85000 96.000
79.90000 85.000
