30.00000 22.000
30.05000 27.000
30.10000 31.000
30.15000 31.000
30.20000 23.000
30.25000 32.000
30.30000 30.000
30.35000 30.000
30.40000 26.000
30.45000 22.000
30.50000 28.000
30.55000 23.000
30.60000 25.000
30.65000 37.000
30.70000 28.000
30.75000 32.000
30.80000 32.000
30.85000 30.000
30.90000 21.000
30.95000 28.000
31.00000 28.000
31.05000 42.000
31.10000 36.000
31.15000 30.000
31.20000 32.000
31.25000 26.000
31.30000 23.000
31.35000 27.000
31.40000 42.000
31.45000 29.000
31.50000 36.000
31.55000 29.000
31.60000 35.000
31.65000 29.000
31.70000 31.000
31.75000 38.000
31.80000 37.000
31.85000 30.000
31.90000 23.000
31.95000 32.000
32.00000 19.000
32.05000 32.000
32.10000 35.000
32.15000 34.000
32.20000 30.000
32.25000 24.000
32.30000 28.000
32.35000 37.000
32.40000 27.000
32.45000 24.000
32.50000 32.000
32.55000 35.000
32.60000 36.000
32.65000 31.000
32.70000 41.000
32.75000 25.000
32.80000 31.000
32.85000 44.000
32.90000 38.000
32.95000 38.000
33.00000 26.000
33.05000 28.000
33.10000 34.000
33.15000 35.000
33.20000 25.000
33.25000 31.000
33.30000 27.000
33.35000 27.000
33.40000 34.000
33.45000 34.000
33.50000 29.000
33.55000 28.000
33.60000 27.000
33.65000 43.000
33.70000 35.000
33.75000 23.000
33.80000 37.000
33.85000 26.000
33.90000 43.000
33.95000 38.000
34.00000 20.000
34.05000 31.000
34.10000 36.000
34.15000 34.000
34.20000 27.000
34.25000 29.000
34.30000 31.000
34.35000 22.000
34.40000 28.000
34.45000 33.000
34.50000 25.000
34.55000 32.000
34.60000 26.000
34.65000 25.000
34.70000 27.000
34.75000 26.000
34.80000 23.000
34.85000 23.000
34.90000 24.000
34.95000 30.000
35.00000 32.000
35.05000 26.000
35.10000 28.000
35.15000 31.000
35.20000 24.000
35.25000 29.000
35.30000 28.000
35.35000 32.000
35.40000 27.000
35.45000 33.000
35.50000 26.000
35.55000 24.000
35.60000 26.000
35.65000 30.000
35.70000 33.000
35.75000 31.000
35.80000 31.000
35.85000 33.000
35.90000 25.000
35.95000 35.000
36.00000 22.000
36.05000 20.000
36.10000 26.000
36.15000 34.000
36.20000 20.000
36.25000 25.000
36.30000 29.000
36.35000 32.000
36.40000 38.000
36.45000 29.000
36.50000 32.000
36.55000 25.000
36.60000 21.000
36.65000 25.000
36.70000 23.000
36.75000 27.000
36.80000 28.000
36.85000 22.000
36.90000 25.000
36.95000 23.000
37.00000 33.000
37.05000 24.000
37.10000 25.000
37.15000 25.000
37.20000 24.000
37.25000 21.000
37.30000 24.000
37.35000 32.000
37.40000 25.000
37.45000 22.000
37.50000 24.000
37.55000 34.000
37.60000 31.000
37.65000 29.000
37.70000 27.000
37.75000 18.000
37.80000 23.000
37.85000 25.000
37.90000 24.000
37.95000 29.000
38.00000 37.000
38.05000 20.000
38.10000 27.000
38.15000 23.000
38.20000 17.000
38.25000 26.000
38.30000 27.000
38.35000 30.000
38.40000 25.000
38.45000 18.000
38.50000 27.000
38.55000 28.000
38.60000 21.000
38.65000 17.000
38.70000 20.000
38.75000 33.000
38.80000 33.000
38.85000 25.000
38.90000 35.000
38.95000 25.000
39.00000 41.000
39.05000 19.000
39.10000 34.000
39.15000 38.000
39.20000 44.000
39.25000 54.000
39.30000 59.000
39.35000 79.000
39.40000 107.000
39.45000 110.000
39.50000 117.000
39.55000 100.000
39.60000 69.000
39.65000 49.000
39.70000 47.000
39.75000 44.000
39.80000 28.000
39.85000 37.000
39.90000 27.000
39.95000 29.000
40.00000 31.000
40.05000 32.000
40.10000 31.000
40.15000 33.000
40.20000 30.000
40.25000 24.000
40.30000 24.000
40.35000 24.000
40.40000 25.000
40.45000 32.000
40.50000 33.000
40.55000 38.000
40.60000 19.000
40.65000 31.000
40.70000 26.000
40.75000 28.000
40.80000 24.000
40.85000 23.000
40.90000 28.000
40.95000 23.000
41.00000 23.000
41.05000 19.000
41.10000 30.000
41.15000 31.000
41.20000 25.000
41.25000 23.000
41.30000 18.000
41.35000 22.000
41.40000 29.000
41.45000 35.000
41.50000 31.000
41.55000 32.000
41.60000 28.000
41.65000 32.000
41.70000 32.000
41.75000 29.000
41.80000 28.000
41.85000 27.000
41.90000 35.000
41.95000 22.000
42.00000 23.000
42.05000 27.000
42.10000 31.000
42.15000 33.000
42.20000 35.000
42.25000 33.000
42.30000 18.000
42.35000 28.000
42.40000 24.000
42.45000 28.000
42.50000 25.000
42.55000 23.000
42.60000 33.000
42.65000 32.000
42.70000 17.000
42.75000 26.000
42.80000 31.000
42.85000 22.000
42.90000 30.000
42.95000 28.000
43.00000 34.000
43.05000 23.000
43.10000 31.000
43.15000 14.000
43.20000 12.000
43.25000 28.000
43.30000 33.000
43.35000 31.000
43.40000 27.000
43.45000 17.000
43.50000 20.000
43.55000 27.000
43.60000 19.000
43.65000 20.000
43.70000 22.000
43.75000 30.000
43.80000 18.000
43.85000 23.000
43.90000 26.000
43.95000 20.000
44.00000 29.000
44.05000 43.000
44.10000 26.000
44.15000 23.000
44.20000 17.000
44.25000 22.000
44.30000 26.000
44.35000 28.000
44.40000 24.000
44.45000 25.000
44.50000 25.000
44.55000 29.000
44.60000 21.000
44.65000 27.000
44.70000 27.000
44.75000 29.000
44.80000 33.000
44.85000 23.000
44.90000 26.000
44.95000 40.000
45.00000 30.000
45.05000 32.000
45.10000 30.000
45.15000 32.000
45.20000 43.000
45.25000 27.000
45.30000 36.000
45.35000 36.000
45.40000 35.000
45.45000 40.000
45.50000 50.000
45.55000 54.000
45.60000 59.000
45.65000 60.000
45.70000 61.000
45.75000 56.000
45.80000 46.000
45.85000 51.000
45.90000 54.000
45.95000 41.000
46.00000 30.000
46.05000 34.000
46.10000 41.000
46.15000 29.000
46.20000 31.000
46.25000 34.000
46.30000 20.000
46.35000 28.000
46.40000 35.000
46.45000 34.000
46.50000 36.000
46.55000 32.000
46.60000 30.000
46.65000 27.000
46.70000 27.000
46.75000 34.000
46.80000 34.000
46.85000 33.000
46.90000 38.000
46.95000 27.000
47.00000 37.000
47.05000 27.000
47.10000 24.000
47.15000 33.000
47.20000 27.000
47.25000 27.000
47.30000 23.000
47.35000 24.000
47.40000 30.000
47.45000 25.000
47.50000 36.000
47.55000 25.000
47.60000 30.000
47.65000 36.000
47.70000 25.000
47.75000 26.000
47.80000 27.000
47.85000 28.000
47.90000 21.000
47.95000 23.000
48.00000 23.000
48.05000 24.000
48.10000 25.000
48.15000 37.000
48.20000 28.000
48.25000 30.000
48.30000 25.000
48.35000 31.000
48.40000 24.000
48.45000 20.000
48.50000 23.000
48.55000 30.000
48.60000 31.000
48.65000 31.000
48.70000 31.000
48.75000 31.000
48.80000 27.000
48.85000 28.000
48.90000 42.000
48.95000 27.000
49.00000 27.000
49.05000 28.000
49.10000 27.000
49.15000 17.000
49.20000 21.000
49.25000 22.000
49.30000 27.000
49.35000 29.000
49.40000 24.000
49.45000 30.000
49.50000 32.000
49.55000 26.000
49.60000 25.000
49.65000 27.000
49.70000 23.000
49.75000 34.000
49.80000 21.000
49.85000 31.000
49.90000 21.000
49.95000 35.000
50.00000 31.000
50.05000 27.000
50.10000 40.000
50.15000 25.000
50.20000 27.000
50.25000 35.000
50.30000 29.000
50.35000 19.000
50.40000 25.000
50.45000 28.000
50.50000 25.000
50.55000 38.000
50.60000 25.000
50.65000 24.000
50.70000 36.000
50.75000 26.000
50.80000 26.000
50.85000 31.000
50.90000 24.000
50.95000 30.000
51.00000 35.000
51.05000 21.000
51.10000 26.000
51.15000 40.000
51.20000 34.000
51.25000 31.000
51.30000 24.000
51.35000 46.000
51.40000 28.000
51.45000 44.000
51.50000 33.000
51.55000 37.000
51.60000 30.000
51.65000 26.000
51.70000 28.000
51.75000 27.000
51.80000 29.000
51.85000 41.000
51.90000 41.000
51.95000 23.000
52.00000 34.000
52.05000 28.000
52.10000 33.000
52.15000 20.000
52.20000 30.000
52.25000 25.000
52.30000 35.000
52.35000 29.000
52.40000 32.000
52.45000 31.000
52.50000 34.000
52.55000 24.000
52.60000 37.000
52.65000 29.000
52.70000 27.000
52.75000 24.000
52.80000 27.000
52.85000 23.000
52.90000 31.000
52.95000 41.000
53.00000 43.000
53.05000 30.000
53.10000 33.000
53.15000 40.000
53.20000 24.000
53.25000 20.000
53.30000 38.000
53.35000 24.000
53.40000 32.000
53.45000 39.000
53.50000 31.000
53.55000 35.000
53.60000 28.000
53.65000 24.000
53.70000 24.000
53.75000 28.000
53.80000 21.000
53.85000 29.000
53.90000 36.000
53.95000 35.000
54.00000 22.000
54.05000 31.000
54.10000 29.000
54.15000 27.000
54.20000 19.000
54.25000 29.000
54.30000 29.000
54.35000 39.000
54.40000 28.000
54.45000 33.000
54.50000 28.000
54.55000 30.000
54.60000 34.000
54.65000 32.000
54.70000 34.000
54.75000 34.000
54.80000 38.000
54.85000 35.000
54.90000 35.000
54.95000 33.000
55.00000 52.000
55.05000 30.000
55.10000 33.000
55.15000 24.000
55.20000 29.000
55.25000 35.000
55.30000 35.000
55.35000 26.000
55.40000 31.000
55.45000 32.000
55.50000 37.000
55.55000 30.000
55.60000 30.000
55.65000 32.000
55.70000 22.000
55.75000 32.000
55.80000 35.000
55.85000 31.000
55.90000 35.000
55.95000 33.000
56.00000 17.000
56.05000 37.000
56.10000 32.000
56.15000 33.000
56.20000 31.000
56.25000 35.000
56.30000 36.000
56.35000 35.000
56.40000 33.000
56.45000 34.000
56.50000 43.000
56.55000 32.000
56.60000 34.000
56.65000 32.000
56.70000 22.000
56.75000 40.000
56.80000 39.000
56.85000 30.000
56.90000 32.000
56.95000 29.000
57.00000 41.000
57.05000 38.000
57.10000 39.000
57.15000 39.000
57.20000 31.000
57.25000 49.000
57.30000 32.000
57.35000 39.000
57.40000 33.000
57.45000 33.000
57.50000 35.000
57.55000 27.000
57.60000 14.000
57.65000 24.000
57.70000 39.000
57.75000 30.000
57.80000 35.000
57.85000 34.000
57.90000 39.000
57.95000 45.000
58.00000 35.000
58.05000 32.000
58.10000 32.000
58.15000 29.000
58.20000 35.000
58.25000 35.000
58.30000 29.000
58.35000 23.000
58.40000 41.000
58.45000 40.000
58.50000 42.000
58.55000 33.000
58.60000 35.000
58.65000 30.000
58.70000 32.000
58.75000 40.000
58.80000 28.000
58.85000 40.000
58.90000 45.000
58.95000 28.000
59.00000 35.000
59.05000 36.000
59.10000 50.000
59.15000 32.000
59.20000 40.000
59.25000 39.000
59.30000 29.000
59.35000 39.000
59.40000 47.000
59.45000 31.000
59.50000 27.000
59.55000 38.000
59.60000 39.000
59.65000 46.000
59.70000 34.000
59.75000 31.000
59.80000 35.000
59.85000 46.000
59.90000 41.000
59.95000 43.000
60.00000 35.000
60.05000 38.000
60.10000 33.000
60.15000 35.000
60.20000 33.000
60.25000 32.000
60.30000 37.000
60.35000 36.000
60.40000 25.000
60.45000 32.000
60.50000 39.000
60.55000 47.000
60.60000 36.000
60.65000 38.000
60.70000 44.000
60.75000 37.000
60.80000 46.000
60.85000 34.000
60.90000 20.000
60.95000 52.000
61.00000 36.000
61.05000 37.000
61.10000 46.000
61.15000 32.000
61.20000 37.000
61.25000 47.000
61.30000 33.000
61.35000 45.000
61.40000 37.000
61.45000 28.000
61.50000 30.000
61.55000 45.000
61.60000 46.000
61.65000 38.000
61.70000 39.000
61.75000 37.000
61.80000 36.000
61.85000 45.000
61.90000 34.000
61.95000 45.000
62.00000 39.000
62.05000 49.000
62.10000 44.000
62.15000 56.000
62.20000 50.000
62.25000 32.000
62.30000 32.000
62.35000 42.000
62.40000 48.000
62.45000 32.000
62.50000 44.000
62.55000 43.000
62.60000 50.000
62.65000 28.000
62.70000 41.000
62.75000 36.000
62.80000 38.000
62.85000 36.000
62.90000 35.000
62.95000 41.000
63.00000 39.000
63.05000 47.000
63.10000 45.000
63.15000 49.000
63.20000 46.000
63.25000 46.000
63.30000 47.000
63.35000 39.000
63.40000 44.000
63.45000 45.000
63.50000 49.000
63.55000 47.000
63.60000 36.000
63.65000 46.000
63.70000 48.000
63.75000 41.000
63.80000 40.000
63.85000 48.000
63.90000 40.000
63.95000 46.000
64.00000 45.000
64.05000 40.000
64.10000 41.000
64.15000 38.000
64.20000 40.000
64.25000 46.000
64.30000 48.000
64.35000 40.000
64.40000 43.000
64.45000 49.000
64.50000 54.000
64.55000 32.000
64.60000 48.000
64.65000 52.000
64.70000 27.000
64.75000 47.000
64.80000 46.000
64.85000 30.000
64.90000 50.000
64.95000 49.000
65.00000 43.000
65.05000 35.000
65.10000 44.000
65.15000 49.000
65.20000 41.000
65.25000 44.000
65.30000 41.000
65.35000 52.000
65.40000 51.000
65.45000 46.000
65.50000 50.000
65.55000 74.000
65.60000 56.000
65.65000 74.000
65.70000 67.000
65.75000 76.000
65.80000 68.000
65.85000 86.000
65.90000 80.000
65.95000 79.000
66.00000 50.000
66.05000 52.000
66.10000 56.000
66.15000 51.000
66.20000 50.000
66.25000 46.000
66.30000 35.000
66.35000 52.000
66.40000 56.000
66.45000 63.000
66.50000 63.000
66.55000 58.000
66.60000 57.000
66.65000 40.000
66.70000 35.000
66.75000 41.000
66.80000 54.000
66.85000 40.000
66.90000 56.000
66.95000 42.000
67.00000 47.000
67.05000 53.000
67.10000 41.000
67.15000 55.000
67.20000 43.000
67.25000 46.000
67.30000 42.000
67.35000 41.000
67.40000 51.000
67.45000 58.000
67.50000 40.000
67.55000 57.000
67.60000 53.000
67.65000 50.000
67.70000 53.000
67.75000 55.000
67.80000 43.000
67.85000 58.000
67.90000 32.000
67.95000 37.000
68.00000 57.000
68.05000 49.000
68.10000 36.000
68.15000 47.000
68.20000 48.000
68.25000 60.000
68.30000 48.000
68.35000 47.000
68.40000 29.000
68.45000 60.000
68.50000 51.000
68.55000 56.000
68.60000 53.000
68.65000 36.000
68.70000 48.000
68.75000 47.000
68.80000 41.000
68.85000 40.000
68.90000 41.000
68.95000 47.000
69.00000 50.000
69.05000 50.000
69.10000 44.000
69.15000 35.000
69.20000 38.000
69.25000 35.000
69.30000 50.000
69.35000 48.000
69.40000 35.000
69.45000 45.000
69.50000 48.000
69.55000 43.000
69.60000 32.000
69.65000 41.000
69.70000 48.000
69.75000 42.000
69.80000 54.000
69.85000 45.000
69.90000 50.000
69.95000 53.000
70.00000 42.000
70.05000 52.000
70.10000 55.000
70.15000 38.000
70.20000 32.000
70.25000 49.000
70.30000 37.000
70.35000 41.000
70.40000 32.000
70.45000 45.000
70.50000 37.000
70.55000 54.000
70.60000 44.000
70.65000 47.000
70.70000 53.000
70.75000 62.000
70.80000 53.000
70.85000 46.000
70.90000 47.000
70.95000 45.000
71.00000 43.000
71.05000 52.000
71.10000 42.000
71.15000 47.000
71.20000 41.000
71.25000 64.000
71.30000 38.000
71.35000 42.000
71.40000 46.000
71.45000 42.000
71.50000 42.000
71.55000 41.000
71.60000 37.000
71.65000 43.000
71.70000 44.000
71.75000 37.000
71.80000 44.000
71.85000 49.000
71.90000 56.000
71.95000 63.000
72.00000 43.000
72.05000 51.000
72.10000 43.000
72.15000 47.000
72.20000 30.000
72.25000 45.000
72.30000 64.000
72.35000 45.000
72.40000 46.000
72.45000 53.000
72.50000 43.000
72.55000 56.000
72.60000 42.000
72.65000 49.000
72.70000 46.000
72.75000 44.000
72.80000 48.000
72.85000 49.000
72.90000 46.000
72.95000 36.000
73.00000 45.000
73.05000 49.000
73.10000 48.000
73.15000 42.000
73.20000 48.000
73.25000 46.000
73.30000 40.000
73.35000 52.000
73.40000 48.000
73.45000 32.000
73.50000 42.000
73.55000 49.000
73.60000 41.000
73.65000 47.000
73.70000 40.000
73.75000 44.000
73.80000 60.000
73.85000 58.000
73.90000 38.000
73.95000 50.000
74.00000 45.000
74.05000 43.000
74.10000 45.000
74.15000 49.000
74.20000 42.000
74.25000 49.000
74.30000 52.000
74.35000 50.000
74.40000 40.000
74.45000 42.000
74.50000 50.000
74.55000 54.000
74.60000 53.000
74.65000 47.000
74.70000 51.000
74.75000 37.000
74.80000 44.000
74.85000 39.000
74.90000 43.000
74.95000 43.000
75.00000 48.000
75.05000 53.000
75.10000 59.000
75.15000 51.000
75.20000 55.000
75.25000 47.000
75.30000 36.000
75.35000 53.000
75.40000 43.000
75.45000 57.000
75.50000 43.000
75.55000 41.000
75.60000 52.000
75.65000 48.000
75.70000 44.000
75.75000 46.000
75.80000 49.000
75.85000 53.000
75.90000 37.000
75.95000 60.000
76.00000 53.000
76.05000 56.000
76.10000 53.000
76.15000 55.000
76.20000 40.000
76.25000 43.000
76.30000 43.000
76.35000 51.000
76.40000 54.000
76.45000 41.000
76.50000 46.000
76.55000 48.000
76.60000 44.000
76.65000 46.000
76.70000 57.000
76.75000 51.000
76.80000 48.000
76.85000 58.000
76.90000 46.000
76.95000 35.000
77.00000 54.000
77.05000 50.000
77.10000 42.000
77.15000 46.000
77.20000 58.000
77.25000 54.000
77.30000 60.000
77.35000 39.000
77.40000 40.000
77.45000 52.000
77.50000 44.000
77.55000 49.000
77.60000 45.000
77.65000 63.000
77.70000 52.000
77.75000 52.000
77.80000 52.000
77.85000 44.000
77.90000 48.000
77.95000 47.000
78.00000 48.000
78.05000 50.000
78.10000 44.000
78.15000 61.000
78.20000 52.000
78.25000 59.000
78.30000 63.000
78.35000 69.000
78.40000 76.000
78.45000 88.000
78.50000 75.000
78.55000 94.000
78.60000 86.000
78.65000 91.000
78.70000 76.000
78.75000 88.000
78.80000 76.000
78.85000 84.000
78.90000 85.000
78.95000 93.000
79.00000 51.000
79.05000 53.000
79.10000 44.000
79.15000 52.000
79.20000 76.000
79.25000 70.000
79.30000 59.000
79.35000 61.000
79.40000 60.000
79.45000 51.000
79.50000 48.000
79.55000 51.000
79.60000 49.000
79.65000 52.000
79.70000 64.000
79.75000 60.000
79.80000 59.000
79.85000 50.000
79.90000 54.000
