30.00000 338.000
30.05000 363.000
30.10000 388.000
30.15000 381.000
30.20000 414.000
30.25000 338.000
30.30000 369.000
30.35000 383.000
30.40000 367.000
30.45000 372.000
30.50000 348.000
30.55000 362.000
30.60000 356.000
30.65000 368.000
30.70000 340.000
30.75000 363.000
30.80000 364.000
30.85000 370.000
30.90000 355.000
30.95000 330.000
31.00000 400.000
31.05000 368.000
31.10000 386.000
31.15000 345.000
31.20000 354.000
31.25000 337.000
31.30000 334.000
31.35000 346.000
31.40000 365.000
31.45000 369.000
31.50000 377.000
31.55000 331.000
31.60000 345.000
31.65000 326.000
31.70000 320.000
31.75000 367.000
31.80000 365.000
31.85000 356.000
31.90000 351.000
31.95000 335.000
32.00000 377.000
32.05000 338.000
32.10000 298.000
32.15000 359.000
32.20000 341.000
32.25000 361.000
32.30000 368.000
32.35000 346.000
32.40000 344.000
32.45000 358.000
32.50000 364.000
32.55000 348.000
32.60000 344.000
32.65000 351.000
32.70000 289.000
32.75000 325.000
32.80000 321.000
32.85000 309.000
32.90000 316.000
32.95000 316.000
33.00000 289.000
33.05000 324.000
33.10000 326.000
33.15000 303.000
33.20000 317.000
33.25000 318.000
33.30000 303.000
33.35000 313.000
33.40000 296.000
33.45000 303.000
33.50000 297.000
33.55000 342.000
33.60000 301.000
33.65000 310.000
33.70000 314.000
33.75000 293.000
33.80000 296.000
33.85000 284.000
33.90000 304.000
33.95000 329.000
34.00000 303.000
34.05000 296.000
34.10000 283.000
34.15000 308.000
34.20000 252.000
34.25000 296.000
34.30000 324.000
34.35000 307.000
34.40000 277.000
34.45000 270.000
34.50000 282.000
34.55000 281.000
34.60000 277.000
34.65000 272.000
34.70000 315.000
34.75000 279.000
34.80000 311.000
34.85000 273.000
34.90000 268.000
34.95000 250.000
35.00000 264.000
35.05000 297.000
35.10000 255.000
35.15000 281.000
35.20000 268.000
35.25000 265.000
35.30000 279.000
35.35000 274.000
35.40000 262.000
35.45000 274.000
35.50000 257.000
35.55000 237.000
35.60000 258.000
35.65000 270.000
35.70000 256.000
35.75000 280.000
35.80000 239.000
35.85000 281.000
35.90000 265.000
35.95000 263.000
36.00000 231.000
36.05000 243.000
36.10000 269.000
36.15000 235.000
36.20000 250.000
36.25000 264.000
36.30000 248.000
36.35000 246.000
36.40000 254.000
36.45000 243.000
36.50000 214.000
36.55000 240.000
36.60000 244.000
36.65000 244.000
36.70000 244.000
36.75000 252.000
36.80000 264.000
36.85000 235.000
36.90000 260.000
36.95000 219.000
37.00000 258.000
37.05000 234.000
37.10000 242.000
37.15000 240.000
37.20000 215.000
37.25000 222.000
37.30000 219.000
37.35000 237.000
37.40000 234.000
37.45000 198.000
37.50000 217.000
37.55000 228.000
37.60000 248.000
37.65000 213.000
37.70000 266.000
37.75000 232.000
37.80000 233.000
37.85000 237.000
37.90000 213.000
37.95000 216.000
38.00000 238.000
38.05000 250.000
38.10000 236.000
38.15000 268.000
38.20000 264.000
38.25000 228.000
38.30000 263.000
38.35000 305.000
38.40000 263.000
38.45000 297.000
38.50000 318.000
38.55000 367.000
38.60000 375.000
38.65000 378.000
38.70000 395.000
38.75000 473.000
38.80000 508.000
38.85000 530.000
38.90000 529.000
38.95000 500.000
39.00000 499.000
39.05000 464.000
39.10000 452.000
39.15000 434.000
39.20000 375.000
39.25000 418.000
39.30000 308.000
39.35000 308.000
39.40000 316.000
39.45000 259.000
39.50000 274.000
39.55000 286.000
39.60000 225.000
39.65000 247.000
39.70000 217.000
39.75000 230.000
39.80000 214.000
39.85000 237.000
39.90000 231.000
39.95000 232.000
40.00000 220.000
40.05000 230.000
40.10000 188.000
40.15000 212.000
40.20000 203.000
40.25000 214.000
40.30000 202.000
40.35000 194.000
40.40000 217.000
40.45000 211.000
40.50000 206.000
40.55000 230.000
40.60000 198.000
40.65000 219.000
40.70000 211.000
40.75000 183.000
40.80000 225.000
40.85000 208.000
40.90000 203.000
40.95000 208.000
41.00000 197.000
41.05000 218.000
41.10000 193.000
41.15000 202.000
41.20000 197.000
41.25000 187.000
41.30000 175.000
41.35000 201.000
41.40000 216.000
41.45000 204.000
41.50000 186.000
41.55000 195.000
41.60000 193.000
41.65000 202.000
41.70000 159.000
41.75000 197.000
41.80000 224.000
41.85000 237.000
41.90000 180.000
41.95000 191.000
42.00000 173.000
42.05000 188.000
42.10000 203.000
42.15000 215.000
42.20000 198.000
42.25000 186.000
42.30000 196.000
42.35000 205.000
42.40000 192.000
42.45000 196.000
42.50000 195.000
42.55000 184.000
42.60000 222.000
42.65000 195.000
42.70000 181.000
42.75000 213.000
42.80000 210.000
42.85000 217.000
42.90000 214.000
42.95000 213.000
43.00000 203.000
43.05000 200.000
43.10000 217.000
43.15000 173.000
43.20000 213.000
43.25000 197.000
43.30000 205.000
43.35000 182.000
43.40000 191.000
43.45000 194.000
43.50000 195.000
43.55000 175.000
43.60000 203.000
43.65000 193.000
43.70000 192.000
43.75000 232.000
43.80000 184.000
43.85000 178.000
43.90000 210.000
43.95000 230.000
44.00000 209.000
44.05000 217.000
44.10000 204.000
44.15000 211.000
44.20000 243.000
44.25000 202.000
44.30000 207.000
44.35000 233.000
44.40000 214.000
44.45000 218.000
44.50000 221.000
44.55000 224.000
44.60000 221.000
44.65000 245.000
44.70000 267.000
44.75000 256.000
44.80000 258.000
44.85000 254.000
44.90000 259.000
44.95000 255.000
45.00000 262.000
45.05000 269.000
45.10000 282.000
45.15000 303.000
45.20000 281.000
45.25000 259.000
45.30000 250.000
45.35000 263.000
45.40000 235.000
45.45000 239.000
45.50000 232.000
45.55000 242.000
45.60000 223.000
45.65000 231.000
45.70000 221.000
45.75000 205.000
45.80000 222.000
45.85000 201.000
45.90000 203.000
45.95000 181.000
46.00000 221.000
46.05000 220.000
46.10000 180.000
46.15000 191.000
46.20000 211.000
46.25000 196.000
46.30000 190.000
46.35000 184.000
46.40000 181.000
46.45000 190.000
46.50000 178.000
46.55000 214.000
46.60000 195.000
46.65000 166.000
46.70000 166.000
46.75000 189.000
46.80000 187.000
46.85000 163.000
46.90000 167.000
46.95000 184.000
47.00000 183.000
47.05000 198.000
47.10000 176.000
47.15000 178.000
47.20000 160.000
47.25000 166.000
47.30000 177.000
47.35000 173.000
47.40000 188.000
47.45000 166.000
47.50000 166.000
47.55000 184.000
47.60000 184.000
47.65000 167.000
47.70000 166.000
47.75000 180.000
47.80000 174.000
47.85000 205.000
47.90000 165.000
47.95000 173.000
48.00000 197.000
48.05000 149.000
48.10000 161.000
48.15000 184.000
48.20000 218.000
48.25000 174.000
48.30000 140.000
48.35000 180.000
48.40000 152.000
48.45000 180.000
48.50000 168.000
48.55000 178.000
48.60000 167.000
48.65000 188.000
48.70000 201.000
48.75000 175.000
48.80000 153.000
48.85000 145.000
48.90000 183.000
48.95000 180.000
49.00000 168.000
49.05000 190.000
49.10000 168.000
49.15000 171.000
49.20000 167.000
49.25000 158.000
49.30000 196.000
49.35000 165.000
49.40000 181.000
49.45000 170.000
49.50000 156.000
49.55000 150.000
49.60000 185.000
49.65000 156.000
49.70000 155.000
49.75000 151.000
49.80000 162.000
49.85000 174.000
49.90000 147.000
49.95000 173.000
50.00000 166.000
50.05000 175.000
50.10000 167.000
50.15000 151.000
50.20000 181.000
50.25000 155.000
50.30000 163.000
50.35000 159.000
50.40000 162.000
50.45000 158.000
50.50000 173.000
50.55000 177.000
50.60000 154.000
50.65000 149.000
50.70000 174.000
50.75000 161.000
50.80000 170.000
50.85000 148.000
50.90000 180.000
50.95000 166.000
51.00000 166.000
51.05000 155.000
51.10000 133.000
51.15000 163.000
51.20000 149.000
51.25000 170.000
51.30000 173.000
51.35000 160.000
51.40000 168.000
51.45000 159.000
51.50000 165.000
51.55000 159.000
51.60000 164.000
51.65000 170.000
51.70000 163.000
51.75000 170.000
51.80000 176.000
51.85000 140.000
51.90000 185.000
51.95000 178.000
52.00000 156.000
52.05000 168.000
52.10000 176.000
52.15000 169.000
52.20000 172.000
52.25000 143.000
52.30000 161.000
52.35000 142.000
52.40000 164.000
52.45000 169.000
52.50000 166.000
52.55000 164.000
52.60000 153.000
52.65000 173.000
52.70000 166.000
52.75000 169.000
52.80000 151.000
52.85000 179.000
52.90000 154.000
52.95000 161.000
53.00000 162.000
53.05000 160.000
53.10000 166.000
53.15000 163.000
53.20000 163.000
53.25000 161.000
53.30000 167.000
53.35000 178.000
53.40000 170.000
53.45000 153.000
53.50000 147.000
53.55000 192.000
53.60000 166.000
53.65000 160.000
53.70000 171.000
53.75000 156.000
53.80000 159.000
53.85000 144.000
53.90000 154.000
53.95000 160.000
54.00000 151.000
54.05000 158.000
54.10000 190.000
54.15000 188.000
54.20000 163.000
54.25000 162.000
54.30000 150.000
54.35000 176.000
54.40000 164.000
54.45000 160.000
54.50000 156.000
54.55000 153.000
54.60000 177.000
54.65000 157.000
54.70000 182.000
54.75000 163.000
54.80000 166.000
54.85000 144.000
54.90000 165.000
54.95000 180.000
55.00000 164.000
55.05000 161.000
55.10000 171.000
55.15000 164.000
55.20000 187.000
55.25000 173.000
55.30000 148.000
55.35000 179.000
55.40000 161.000
55.45000 154.000
55.50000 176.000
55.55000 174.000
55.60000 183.000
55.65000 132.000
55.70000 162.000
55.75000 184.000
55.80000 173.000
55.85000 164.000
55.90000 177.000
55.95000 180.000
56.00000 173.000
56.05000 161.000
56.10000 177.000
56.15000 160.000
56.20000 177.000
56.25000 171.000
56.30000 172.000
56.35000 171.000
56.40000 176.000
56.45000 160.000
56.50000 142.000
56.55000 211.000
56.60000 184.000
56.65000 153.000
56.70000 177.000
56.75000 163.000
56.80000 165.000
56.85000 167.000
56.90000 185.000
56.95000 149.000
57.00000 173.000
57.05000 169.000
57.10000 133.000
57.15000 164.000
57.20000 149.000
57.25000 191.000
57.30000 156.000
57.35000 169.000
57.40000 174.000
57.45000 155.000
57.50000 188.000
57.55000 167.000
57.60000 169.000
57.65000 177.000
57.70000 166.000
57.75000 167.000
57.80000 150.000
57.85000 179.000
57.90000 150.000
57.95000 176.000
58.00000 181.000
58.05000 170.000
58.10000 175.000
58.15000 159.000
58.20000 170.000
58.25000 189.000
58.30000 172.000
58.35000 166.000
58.40000 167.000
58.45000 181.000
58.50000 175.000
58.55000 157.000
58.60000 159.000
58.65000 179.000
58.70000 191.000
58.75000 176.000
58.80000 178.000
58.85000 199.000
58.90000 150.000
58.95000 162.000
59.00000 176.000
59.05000 179.000
59.10000 183.000
59.15000 167.000
59.20000 174.000
59.25000 166.000
59.30000 166.000
59.35000 165.000
59.40000 197.000
59.45000 165.000
59.50000 183.000
59.55000 185.000
59.60000 174.000
59.65000 173.000
59.70000 180.000
59.75000 176.000
59.80000 155.000
59.85000 145.000
59.90000 153.000
59.95000 165.000
60.00000 153.000
60.05000 166.000
60.10000 180.000
60.15000 173.000
60.20000 176.000
60.25000 180.000
60.30000 192.000
60.35000 169.000
60.40000 171.000
60.45000 180.000
60.50000 191.000
60.55000 174.000
60.60000 168.000
60.65000 172.000
60.70000 167.000
60.75000 174.000
60.80000 139.000
60.85000 168.000
60.90000 188.000
60.95000 172.000
61.00000 195.000
61.05000 164.000
61.10000 151.000
61.15000 176.000
61.20000 171.000
61.25000 179.000
61.30000 167.000
61.35000 181.000
61.40000 184.000
61.45000 180.000
61.50000 153.000
61.55000 168.000
61.60000 166.000
61.65000 207.000
61.70000 173.000
61.75000 164.000
61.80000 148.000
61.85000 161.000
61.90000 193.000
61.95000 171.000
62.00000 151.000
62.05000 155.000
62.10000 156.000
62.15000 172.000
62.20000 175.000
62.25000 153.000
62.30000 199.000
62.35000 172.000
62.40000 173.000
62.45000 175.000
62.50000 154.000
62.55000 193.000
62.60000 153.000
62.65000 171.000
62.70000 143.000
62.75000 162.000
62.80000 159.000
62.85000 175.000
62.90000 174.000
62.95000 177.000
63.00000 171.000
63.05000 187.000
63.10000 161.000
63.15000 160.000
63.20000 168.000
63.25000 142.000
63.30000 172.000
63.35000 179.000
63.40000 171.000
63.45000 171.000
63.50000 182.000
63.55000 181.000
63.60000 169.000
63.65000 188.000
63.70000 170.000
63.75000 197.000
63.80000 171.000
63.85000 160.000
63.90000 180.000
63.95000 175.000
64.00000 196.000
64.05000 154.000
64.10000 144.000
64.15000 177.000
64.20000 189.000
64.25000 169.000
64.30000 180.000
64.35000 139.000
64.40000 162.000
64.45000 188.000
64.50000 172.000
64.55000 172.000
64.60000 173.000
64.65000 184.000
64.70000 204.000
64.75000 177.000
64.80000 197.000
64.85000 158.000
64.90000 193.000
64.95000 208.000
65.00000 183.000
65.05000 192.000
65.10000 205.000
65.15000 216.000
65.20000 208.000
65.25000 206.000
65.30000 208.000
65.35000 220.000
65.40000 205.000
65.45000 195.000
65.50000 192.000
65.55000 212.000
65.60000 200.000
65.65000 181.000
65.70000 220.000
65.75000 190.000
65.80000 193.000
65.85000 189.000
65.90000 183.000
65.95000 173.000
66.00000 177.000
66.05000 167.000
66.10000 187.000
66.15000 169.000
66.20000 157.000
66.25000 149.000
66.30000 165.000
66.35000 178.000
66.40000 163.000
66.45000 158.000
66.50000 177.000
66.55000 194.000
66.60000 168.000
66.65000 158.000
66.70000 173.000
66.75000 181.000
66.80000 183.000
66.85000 181.000
66.90000 176.000
66.95000 179.000
67.00000 168.000
67.05000 182.000
67.10000 159.000
67.15000 137.000
67.20000 157.000
67.25000 141.000
67.30000 198.000
67.35000 168.000
67.40000 156.000
67.45000 155.000
67.50000 155.000
67.55000 145.000
67.60000 158.000
67.65000 164.000
67.70000 171.000
67.75000 165.000
67.80000 161.000
67.85000 162.000
67.90000 176.000
67.95000 154.000
68.00000 176.000
68.05000 174.000
68.10000 160.000
68.15000 183.000
68.20000 170.000
68.25000 149.000
68.30000 140.000
68.35000 179.000
68.40000 163.000
68.45000 166.000
68.50000 159.000
68.55000 141.000
68.60000 120.000
68.65000 158.000
68.70000 140.000
68.75000 156.000
68.80000 161.000
68.85000 145.000
68.90000 157.000
68.95000 158.000
69.00000 154.000
69.05000 152.000
69.10000 181.000
69.15000 156.000
69.20000 155.000
69.25000 164.000
69.30000 182.000
69.35000 160.000
69.40000 148.000
69.45000 137.000
69.50000 162.000
69.55000 165.000
69.60000 157.000
69.65000 166.000
69.70000 151.000
69.75000 160.000
69.80000 141.000
69.85000 167.000
69.90000 154.000
69.95000 169.000
70.00000 178.000
70.05000 144.000
70.10000 141.000
70.15000 139.000
70.20000 174.000
70.25000 145.000
70.30000 143.000
70.35000 148.000
70.40000 165.000
70.45000 149.000
70.50000 152.000
70.55000 173.000
70.60000 160.000
70.65000 185.000
70.70000 143.000
70.75000 155.000
70.80000 185.000
70.85000 141.000
70.90000 178.000
70.95000 129.000
71.00000 128.000
71.05000 129.000
71.10000 160.000
71.15000 169.000
71.20000 162.000
71.25000 144.000
71.30000 145.000
71.35000 147.000
71.40000 123.000
71.45000 150.000
71.50000 161.000
71.55000 137.000
71.60000 156.000
71.65000 145.000
71.70000 165.000
71.75000 117.000
71.80000 163.000
71.85000 136.000
71.90000 174.000
71.95000 145.000
72.00000 136.000
72.05000 139.000
72.10000 148.000
72.15000 159.000
72.20000 136.000
72.25000 134.000
72.30000 145.000
72.35000 168.000
72.40000 163.000
72.45000 170.000
72.50000 137.000
72.55000 143.000
72.60000 179.000
72.65000 153.000
72.70000 146.000
72.75000 148.000
72.80000 129.000
72.85000 152.000
72.90000 146.000
72.95000 162.000
73.00000 149.000
73.05000 142.000
73.10000 136.000
73.15000 159.000
73.20000 125.000
73.25000 138.000
73.30000 118.000
73.35000 145.000
73.40000 129.000
73.45000 159.000
73.50000 120.000
73.55000 151.000
73.60000 126.000
73.65000 138.000
73.70000 144.000
73.75000 143.000
73.80000 144.000
73.85000 159.000
73.90000 154.000
73.95000 116.000
74.00000 160.000
74.05000 151.000
74.10000 127.000
74.15000 132.000
74.20000 139.000
74.25000 128.000
74.30000 137.000
74.35000 124.000
74.40000 121.000
74.45000 153.000
74.50000 127.000
74.55000 147.000
74.60000 147.000
74.65000 156.000
74.70000 143.000
74.75000 136.000
74.80000 124.000
74.85000 133.000
74.90000 140.000
74.95000 144.000
75.00000 154.000
75.05000 144.000
75.10000 136.000
75.15000 148.000
75.20000 158.000
75.25000 142.000
75.30000 153.000
75.35000 119.000
75.40000 133.000
75.45000 174.000
75.50000 159.000
75.55000 146.000
75.60000 124.000
75.65000 146.000
75.70000 124.000
75.75000 143.000
75.80000 129.000
75.85000 128.000
75.90000 159.000
75.95000 158.000
76.00000 159.000
76.05000 143.000
76.10000 128.000
76.15000 141.000
76.20000 141.000
76.25000 129.000
76.30000 166.000
76.35000 119.000
76.40000 160.000
76.45000 157.000
76.50000 150.000
76.55000 153.000
76.60000 159.000
76.65000 134.000
76.70000 137.000
76.75000 126.000
76.80000 147.000
76.85000 141.000
76.90000 123.000
76.95000 152.000
77.00000 161.000
77.05000 127.000
77.10000 155.000
77.15000 158.000
77.20000 131.000
77.25000 155.000
77.30000 126.000
77.35000 135.000
77.40000 140.000
77.45000 166.000
77.50000 131.000
77.55000 154.000
77.60000 161.000
77.65000 146.000
77.70000 134.000
77.75000 143.000
77.80000 159.000
77.85000 163.000
77.90000 163.000
77.95000 166.000
78.00000 174.000
78.05000 197.000
78.10000 172.000
78.15000 205.000
78.20000 184.000
78.25000 165.000
78.30000 180.000
78.35000 183.000
78.40000 172.000
78.45000 159.000
78.50000 167.000
78.55000 162.000
78.60000 173.000
78.65000 152.000
78.70000 152.000
78.75000 136.000
78.80000 168.000
78.85000 159.000
78.90000 171.000
78.95000 141.000
79.00000 160.000
79.05000 133.000
79.10000 143.000
79.15000 139.000
79.20000 142.000
79.25000 145.000
79.30000 130.000
79.35000 138.000
79.40000 141.000
79.45000 136.000
79.50000 133.000
79.55000 146.000
79.60000 139.000
79.65000 175.000
79.70000 147.000
79.75000 140.000
79.80000 158.000
79.85000 115.000
79.90000 124.000
