30.00000 258.000
30.05000 277.000
30.10000 259.000
30.15000 272.000
30.20000 254.000
30.25000 290.000
30.30000 257.000
30.35000 220.000
30.40000 260.000
30.45000 263.000
30.50000 234.000
30.55000 250.000
30.60000 256.000
30.65000 249.000
30.70000 222.000
30.75000 253.000
30.80000 264.000
30.85000 244.000
30.90000 262.000
30.95000 265.000
31.00000 252.000
31.05000 288.000
31.10000 261.000
31.15000 228.000
31.20000 234.000
31.25000 222.000
31.30000 246.000
31.35000 255.000
31.40000 263.000
31.45000 239.000
31.50000 246.000
31.55000 251.000
31.60000 251.000
31.65000 239.000
31.70000 258.000
31.75000 241.000
31.80000 238.000
31.85000 256.000
31.90000 254.000
31.95000 257.000
32.00000 265.000
32.05000 249.000
32.10000 245.000
32.15000 251.000
32.20000 240.000
32.25000 236.000
32.30000 220.000
32.35000 217.000
32.40000 243.000
32.45000 260.000
32.50000 218.000
32.55000 216.000
32.60000 221.000
32.65000 226.000
32.70000 198.000
32.75000 232.000
32.80000 224.000
32.85000 219.000
32.90000 200.000
32.95000 253.000
33.00000 222.000
33.05000 215.000
33.10000 241.000
33.15000 206.000
33.20000 218.000
33.25000 228.000
33.30000 224.000
33.35000 229.000
33.40000 242.000
33.45000 184.000
33.50000 244.000
33.55000 224.000
33.60000 202.000
33.65000 205.000
33.70000 239.000
33.75000 208.000
33.80000 211.000
33.85000 208.000
33.90000 234.000
33.95000 203.000
34.00000 211.000
34.05000 209.000
34.10000 190.000
34.15000 209.000
34.20000 233.000
34.25000 202.000
34.30000 179.000
34.35000 207.000
34.40000 215.000
34.45000 201.000
34.50000 194.000
34.55000 219.000
34.60000 218.000
34.65000 222.000
34.70000 220.000
34.75000 198.000
34.80000 208.000
34.85000 201.000
34.90000 193.000
34.95000 206.000
35.00000 194.000
35.05000 199.000
35.10000 229.000
35.15000 194.000
35.20000 216.000
35.25000 210.000
35.30000 212.000
35.35000 192.000
35.40000 215.000
35.45000 213.000
35.50000 196.000
35.55000 191.000
35.60000 183.000
35.65000 179.000
35.70000 178.000
35.75000 188.000
35.80000 203.000
35.85000 169.000
35.90000 178.000
35.95000 170.000
36.00000 184.000
36.05000 161.000
36.10000 182.000
36.15000 176.000
36.20000 185.000
36.25000 208.000
36.30000 189.000
36.35000 173.000
36.40000 166.000
36.45000 192.000
36.50000 174.000
36.55000 180.000
36.60000 174.000
36.65000 201.000
36.70000 161.000
36.75000 171.000
36.80000 150.000
36.85000 162.000
36.90000 193.000
36.95000 171.000
37.00000 188.000
37.05000 164.000
37.10000 176.000
37.15000 186.000
37.20000 155.000
37.25000 163.000
37.30000 173.000
37.35000 165.000
37.40000 153.000
37.45000 170.000
37.50000 177.000
37.55000 184.000
37.60000 150.000
37.65000 153.000
37.70000 173.000
37.75000 210.000
37.80000 183.000
37.85000 162.000
37.90000 172.000
37.95000 203.000
38.00000 175.000
38.05000 187.000
38.10000 189.000
38.15000 191.000
38.20000 172.000
38.25000 192.000
38.30000 201.000
38.35000 206.000
38.40000 187.000
38.45000 190.000
38.50000 182.000
38.55000 238.000
38.60000 239.000
38.65000 272.000
38.70000 329.000
38.75000 356.000
38.80000 494.000
38.85000 701.000
38.90000 979.000
38.95000 1425.000
39.00000 1833.000
39.05000 2158.000
39.10000 2154.000
39.15000 1752.000
39.20000 1406.000
39.25000 919.000
39.30000 613.000
39.35000 442.000
39.40000 322.000
39.45000 297.000
39.50000 244.000
39.55000 246.000
39.60000 189.000
39.65000 216.000
39.70000 215.000
39.75000 185.000
39.80000 194.000
39.85000 186.000
39.90000 177.000
39.95000 197.000
40.00000 164.000
40.05000 172.000
40.10000 163.000
40.15000 145.000
40.20000 165.000
40.25000 159.000
40.30000 153.000
40.35000 189.000
40.40000 174.000
40.45000 158.000
40.50000 150.000
40.55000 140.000
40.60000 130.000
40.65000 150.000
40.70000 156.000
40.75000 155.000
40.80000 163.000
40.85000 133.000
40.90000 164.000
40.95000 148.000
41.00000 151.000
41.05000 147.000
41.10000 146.000
41.15000 158.000
41.20000 175.000
41.25000 166.000
41.30000 151.000
41.35000 166.000
41.40000 166.000
41.45000 189.000
41.50000 167.000
41.55000 160.000
41.60000 154.000
41.65000 159.000
41.70000 162.000
41.75000 149.000
41.80000 172.000
41.85000 144.000
41.90000 151.000
41.95000 132.000
42.00000 154.000
42.05000 144.000
42.10000 145.000
42.15000 152.000
42.20000 137.000
42.25000 154.000
42.30000 150.000
42.35000 159.000
42.40000 148.000
42.45000 157.000
42.50000 134.000
42.55000 144.000
42.60000 150.000
42.65000 160.000
42.70000 144.000
42.75000 142.000
42.80000 158.000
42.85000 173.000
42.90000 167.000
42.95000 156.000
43.00000 155.000
43.05000 160.000
43.10000 172.000
43.15000 156.000
43.20000 134.000
43.25000 110.000
43.30000 163.000
43.35000 154.000
43.40000 128.000
43.45000 154.000
43.50000 159.000
43.55000 152.000
43.60000 175.000
43.65000 155.000
43.70000 160.000
43.75000 128.000
43.80000 163.000
43.85000 153.000
43.90000 142.000
43.95000 166.000
44.00000 162.000
44.05000 152.000
44.10000 159.000
44.15000 186.000
44.20000 127.000
44.25000 179.000
44.30000 167.000
44.35000 140.000
44.40000 153.000
44.45000 164.000
44.50000 151.000
44.55000 151.000
44.60000 165.000
44.65000 187.000
44.70000 186.000
44.75000 192.000
44.80000 204.000
44.85000 185.000
44.90000 216.000
44.95000 240.000
45.00000 276.000
45.05000 345.000
45.10000 439.000
45.15000 563.000
45.20000 679.000
45.25000 719.000
45.30000 690.000
45.35000 648.000
45.40000 535.000
45.45000 419.000
45.50000 342.000
45.55000 298.000
45.60000 232.000
45.65000 199.000
45.70000 201.000
45.75000 189.000
45.80000 180.000
45.85000 170.000
45.90000 168.000
45.95000 147.000
46.00000 181.000
46.05000 175.000
46.10000 165.000
46.15000 151.000
46.20000 168.000
46.25000 177.000
46.30000 157.000
46.35000 157.000
46.40000 161.000
46.45000 159.000
46.50000 132.000
46.55000 159.000
46.60000 161.000
46.65000 133.000
46.70000 137.000
46.75000 127.000
46.80000 156.000
46.85000 149.000
46.90000 138.000
46.95000 120.000
47.00000 131.000
47.05000 132.000
47.10000 149.000
47.15000 169.000
47.20000 153.000
47.25000 133.000
47.30000 149.000
47.35000 140.000
47.40000 144.000
47.45000 163.000
47.50000 131.000
47.55000 138.000
47.60000 153.000
47.65000 175.000
47.70000 146.000
47.75000 145.000
47.80000 154.000
47.85000 147.000
47.90000 145.000
47.95000 118.000
48.00000 159.000
48.05000 138.000
48.10000 136.000
48.15000 133.000
48.20000 144.000
48.25000 129.000
48.30000 124.000
48.35000 120.000
48.40000 131.000
48.45000 142.000
48.50000 125.000
48.55000 112.000
48.60000 139.000
48.65000 156.000
48.70000 146.000
48.75000 113.000
48.80000 153.000
48.85000 112.000
48.90000 153.000
48.95000 123.000
49.00000 136.000
49.05000 150.000
49.10000 129.000
49.15000 134.000
49.20000 157.000
49.25000 139.000
49.30000 113.000
49.35000 127.000
49.40000 129.000
49.45000 144.000
49.50000 128.000
49.55000 134.000
49.60000 143.000
49.65000 138.000
49.70000 120.000
49.75000 136.000
49.80000 143.000
49.85000 139.000
49.90000 110.000
49.95000 140.000
50.00000 134.000
50.05000 107.000
50.10000 126.000
50.15000 135.000
50.20000 141.000
50.25000 123.000
50.30000 135.000
50.35000 139.000
50.40000 140.000
50.45000 134.000
50.50000 144.000
50.55000 137.000
50.60000 134.000
50.65000 116.000
50.70000 143.000
50.75000 146.000
50.80000 133.000
50.85000 137.000
50.90000 133.000
50.95000 129.000
51.00000 147.000
51.05000 143.000
51.10000 128.000
51.15000 122.000
51.20000 146.000
51.25000 142.000
51.30000 133.000
51.35000 99.000
51.40000 159.000
51.45000 126.000
51.50000 124.000
51.55000 139.000
51.60000 119.000
51.65000 126.000
51.70000 100.000
51.75000 114.000
51.80000 150.000
51.85000 130.000
51.90000 141.000
51.95000 138.000
52.00000 120.000
52.05000 123.000
52.10000 135.000
52.15000 126.000
52.20000 145.000
52.25000 137.000
52.30000 128.000
52.35000 143.000
52.40000 139.000
52.45000 118.000
52.50000 106.000
52.55000 150.000
52.60000 135.000
52.65000 148.000
52.70000 121.000
52.75000 135.000
52.80000 144.000
52.85000 141.000
52.90000 126.000
52.95000 121.000
53.00000 111.000
53.05000 126.000
53.10000 125.000
53.15000 165.000
53.20000 121.000
53.25000 161.000
53.30000 132.000
53.35000 135.000
53.40000 124.000
53.45000 145.000
53.50000 140.000
53.55000 111.000
53.60000 131.000
53.65000 137.000
53.70000 131.000
53.75000 130.000
53.80000 150.000
53.85000 113.000
53.90000 135.000
53.95000 135.000
54.00000 126.000
54.05000 122.000
54.10000 142.000
54.15000 139.000
54.20000 129.000
54.25000 123.000
54.30000 128.000
54.35000 134.000
54.40000 128.000
54.45000 142.000
54.50000 126.000
54.55000 125.000
54.60000 122.000
54.65000 124.000
54.70000 116.000
54.75000 133.000
54.80000 132.000
54.85000 122.000
54.90000 111.000
54.95000 116.000
55.00000 118.000
55.05000 138.000
55.10000 134.000
55.15000 121.000
55.20000 125.000
55.25000 113.000
55.30000 118.000
55.35000 102.000
55.40000 128.000
55.45000 135.000
55.50000 138.000
55.55000 138.000
55.60000 123.000
55.65000 138.000
55.70000 112.000
55.75000 111.000
55.80000 120.000
55.85000 138.000
55.90000 131.000
55.95000 111.000
56.00000 143.000
56.05000 117.000
56.10000 135.000
56.15000 133.000
56.20000 113.000
56.25000 120.000
56.30000 126.000
56.35000 142.000
56.40000 125.000
56.45000 143.000
56.50000 130.000
56.55000 129.000
56.60000 138.000
56.65000 124.000
56.70000 131.000
56.75000 149.000
56.80000 114.000
56.85000 137.000
56.90000 138.000
56.95000 134.000
57.00000 128.000
57.05000 137.000
57.10000 153.000
57.15000 127.000
57.20000 143.000
57.25000 123.000
57.30000 136.000
57.35000 146.000
57.40000 137.000
57.45000 115.000
57.50000 137.000
57.55000 133.000
57.60000 130.000
57.65000 126.000
57.70000 112.000
57.75000 131.000
57.80000 111.000
57.85000 147.000
57.90000 105.000
57.95000 138.000
58.00000 133.000
58.05000 131.000
58.10000 129.000
58.15000 125.000
58.20000 128.000
58.25000 153.000
58.30000 135.000
58.35000 119.000
58.40000 126.000
58.45000 141.000
58.50000 142.000
58.55000 143.000
58.60000 136.000
58.65000 137.000
58.70000 132.000
58.75000 114.000
58.80000 127.000
58.85000 139.000
58.90000 140.000
58.95000 129.000
59.00000 143.000
59.05000 113.000
59.10000 130.000
59.15000 130.000
59.20000 134.000
59.25000 140.000
59.30000 136.000
59.35000 138.000
59.40000 119.000
59.45000 147.000
59.50000 153.000
59.55000 132.000
59.60000 139.000
59.65000 147.000
59.70000 159.000
59.75000 131.000
59.80000 128.000
59.85000 155.000
59.90000 115.000
59.95000 112.000
60.00000 133.000
60.05000 168.000
60.10000 126.000
60.15000 116.000
60.20000 133.000
60.25000 130.000
60.30000 140.000
60.35000 119.000
60.40000 140.000
60.45000 132.000
60.50000 109.000
60.55000 138.000
60.60000 135.000
60.65000 133.000
60.70000 115.000
60.75000 124.000
60.80000 153.000
60.85000 127.000
60.90000 139.000
60.95000 149.000
61.00000 141.000
61.05000 164.000
61.10000 164.000
61.15000 135.000
61.20000 145.000
61.25000 145.000
61.30000 151.000
61.35000 129.000
61.40000 134.000
61.45000 143.000
61.50000 126.000
61.55000 124.000
61.60000 136.000
61.65000 135.000
61.70000 124.000
61.75000 141.000
61.80000 129.000
61.85000 134.000
61.90000 151.000
61.95000 132.000
62.00000 131.000
62.05000 137.000
62.10000 127.000
62.15000 139.000
62.20000 108.000
62.25000 126.000
62.30000 133.000
62.35000 140.000
62.40000 147.000
62.45000 133.000
62.50000 139.000
62.55000 135.000
62.60000 143.000
62.65000 124.000
62.70000 134.000
62.75000 124.000
62.80000 134.000
62.85000 124.000
62.90000 142.000
62.95000 135.000
63.00000 149.000
63.05000 128.000
63.10000 154.000
63.15000 150.000
63.20000 196.000
63.25000 128.000
63.30000 126.000
63.35000 129.000
63.40000 119.000
63.45000 140.000
63.50000 143.000
63.55000 137.000
63.60000 148.000
63.65000 140.000
63.70000 145.000
63.75000 108.000
63.80000 145.000
63.85000 135.000
63.90000 136.000
63.95000 136.000
64.00000 125.000
64.05000 136.000
64.10000 134.000
64.15000 162.000
64.20000 145.000
64.25000 169.000
64.30000 133.000
64.35000 132.000
64.40000 132.000
64.45000 143.000
64.50000 116.000
64.55000 141.000
64.60000 148.000
64.65000 153.000
64.70000 146.000
64.75000 166.000
64.80000 150.000
64.85000 157.000
64.90000 158.000
64.95000 158.000
65.00000 163.000
65.05000 179.000
65.10000 201.000
65.15000 220.000
65.20000 281.000
65.25000 285.000
65.30000 383.000
65.35000 405.000
65.40000 414.000
65.45000 396.000
65.50000 385.000
65.55000 307.000
65.60000 313.000
65.65000 241.000
65.70000 244.000
65.75000 202.000
65.80000 162.000
65.85000 170.000
65.90000 130.000
65.95000 171.000
66.00000 162.000
66.05000 152.000
66.10000 150.000
66.15000 144.000
66.20000 142.000
66.25000 140.000
66.30000 134.000
66.35000 133.000
66.40000 151.000
66.45000 125.000
66.50000 161.000
66.55000 142.000
66.60000 133.000
66.65000 134.000
66.70000 129.000
66.75000 135.000
66.80000 140.000
66.85000 123.000
66.90000 175.000
66.95000 127.000
67.00000 161.000
67.05000 130.000
67.10000 128.000
67.15000 140.000
67.20000 154.000
67.25000 146.000
67.30000 145.000
67.35000 140.000
67.40000 131.000
67.45000 144.000
67.50000 159.000
67.55000 137.000
67.60000 132.000
67.65000 142.000
67.70000 124.000
67.75000 122.000
67.80000 139.000
67.85000 149.000
67.90000 148.000
67.95000 132.000
68.00000 121.000
68.05000 144.000
68.10000 101.000
68.15000 111.000
68.20000 149.000
68.25000 140.000
68.30000 118.000
68.35000 155.000
68.40000 125.000
68.45000 138.000
68.50000 151.000
68.55000 115.000
68.60000 136.000
68.65000 130.000
68.70000 138.000
68.75000 136.000
68.80000 121.000
68.85000 138.000
68.90000 141.000
68.95000 118.000
69.00000 123.000
69.05000 137.000
69.10000 138.000
69.15000 144.000
69.20000 132.000
69.25000 138.000
69.30000 129.000
69.35000 133.000
69.40000 145.000
69.45000 129.000
69.50000 151.000
69.55000 118.000
69.60000 137.000
69.65000 123.000
69.70000 130.000
69.75000 136.000
69.80000 137.000
69.85000 133.000
69.90000 130.000
69.95000 154.000
70.00000 138.000
70.05000 114.000
70.10000 123.000
70.15000 105.000
70.20000 131.000
70.25000 117.000
70.30000 129.000
70.35000 103.000
70.40000 109.000
70.45000 123.000
70.50000 116.000
70.55000 125.000
70.60000 114.000
70.65000 118.000
70.70000 121.000
70.75000 116.000
70.80000 121.000
70.85000 123.000
70.90000 119.000
70.95000 109.000
71.00000 108.000
71.05000 115.000
71.10000 124.000
71.15000 131.000
71.20000 139.000
71.25000 124.000
71.30000 133.000
71.35000 145.000
71.40000 127.000
71.45000 121.000
71.50000 130.000
71.55000 128.000
71.60000 130.000
71.65000 117.000
71.70000 106.000
71.75000 125.000
71.80000 127.000
71.85000 127.000
71.90000 125.000
71.95000 114.000
72.00000 125.000
72.05000 119.000
72.10000 120.000
72.15000 123.000
72.20000 140.000
72.25000 130.000
72.30000 113.000
72.35000 128.000
72.40000 121.000
72.45000 131.000
72.50000 140.000
72.55000 128.000
72.60000 134.000
72.65000 132.000
72.70000 96.000
72.75000 125.000
72.80000 128.000
72.85000 144.000
72.90000 108.000
72.95000 137.000
73.00000 114.000
73.05000 106.000
73.10000 101.000
73.15000 127.000
73.20000 129.000
73.25000 122.000
73.30000 123.000
73.35000 127.000
73.40000 108.000
73.45000 139.000
73.50000 115.000
73.55000 135.000
73.60000 124.000
73.65000 134.000
73.70000 132.000
73.75000 112.000
73.80000 154.000
73.85000 103.000
73.90000 105.000
73.95000 105.000
74.00000 108.000
74.05000 123.000
74.10000 130.000
74.15000 115.000
74.20000 121.000
74.25000 108.000
74.30000 107.000
74.35000 149.000
74.40000 100.000
74.45000 108.000
74.50000 127.000
74.55000 122.000
74.60000 128.000
74.65000 134.000
74.70000 112.000
74.75000 110.000
74.80000 122.000
74.85000 118.000
74.90000 123.000
74.95000 131.000
75.00000 123.000
75.05000 107.000
75.10000 116.000
75.15000 128.000
75.20000 129.000
75.25000 108.000
75.30000 123.000
75.35000 139.000
75.40000 123.000
75.45000 134.000
75.50000 114.000
75.55000 108.000
75.60000 102.000
75.65000 109.000
75.70000 122.000
75.75000 124.000
75.80000 114.000
75.85000 100.000
75.90000 129.000
75.95000 112.000
76.00000 110.000
76.05000 136.000
76.10000 118.000
76.15000 124.000
76.20000 117.000
76.25000 120.000
76.30000 130.000
76.35000 128.000
76.40000 109.000
76.45000 122.000
76.50000 125.000
76.55000 117.000
76.60000 120.000
76.65000 95.000
76.70000 116.000
76.75000 113.000
76.80000 128.000
76.85000 134.000
76.90000 107.000
76.95000 131.000
77.00000 122.000
77.05000 142.000
77.10000 122.000
77.15000 140.000
77.20000 101.000
77.25000 131.000
77.30000 129.000
77.35000 123.000
77.40000 131.000
77.45000 141.000
77.50000 129.000
77.55000 135.000
77.60000 137.000
77.65000 120.000
77.70000 139.000
77.75000 142.000
77.80000 133.000
77.85000 140.000
77.90000 167.000
77.95000 154.000
78.00000 192.000
78.05000 207.000
78.10000 244.000
78.15000 246.000
78.20000 303.000
78.25000 375.000
78.30000 422.000
78.35000 397.000
78.40000 349.000
78.45000 357.000
78.50000 314.000
78.55000 269.000
78.60000 222.000
78.65000 202.000
78.70000 202.000
78.75000 165.000
78.80000 158.000
78.85000 147.000
78.90000 132.000
78.95000 140.000
79.00000 149.000
79.05000 140.000
79.10000 145.000
79.15000 127.000
79.20000 126.000
79.25000 122.000
79.30000 127.000
79.35000 126.000
79.40000 118.000
79.45000 106.000
79.50000 112.000
79.55000 136.000
79.60000 92.000
79.65000 117.000
79.70000 132.000
79.75000 116.000
79.80000 123.000
79.85000 124.000
79.90000 117.000
